0,1,2,3,4,5,6,7,8,9,10,11,12,13,14,15,16,17,18,19,20,21,22,23,24,25,26,27,28,29,30,31,32,33,34,35,36,37,38,39,40,41,42,43,44,45,46,47,48,49,50,51,52,53,54,55,56,57,58,59,60,61,62,63,64,65,66,67,68,69,70,71,72,73,74,75,76,77,78,79,80,81,82,83,84,85,86,87,88,89,90,91,92,93,94,95,96,97,98,99,100,101,102,103,104,105,106,107,108,109,110,111,112,113,114,115,116,117,118,119,120,121,122,123,124,125,126,127,128,129,130,131,132,133,134,135,136,137,138,139,140,141,142,143,144,145,146,147,148,149,150,151,152,153,154,155,156,157,158,159,160,161,162,163,164,165,166,167,168,169,170,171,172,173,174,175,176,177,178,179,180,181,182,183,184,185,186,187,188,189,190,191,192,193,194,195,196,197,198,199,200,201,202,203,204,205,206,207,208,209,210,211,212,213,214,215,216,217,218,219,220,221,222,223,224,225,226,227,228,229,230,231,232,233,234,235,236,237,238,239,ges
71.982421875,37.060639384860615,17.937020373364312,1.1493782985234375,8.672889866766015,7.1757452246989715,3.388094950438729,3.620292953428204,3.507728821396598,8.622306092829145,10.515604704962314,6.5280907626924485,0.7275025965665693,4.816386477269674,4.810705582796356,3.329203404613407,3.7075519259069045,2.302140981653114,1.2883440256304963,3.4773044712767214,2.9728559424042187,1.2049173918262555,2.4127599789261405,2.559407730749406,0.8672731963107385,1.3073183964976007,1.704383565669483,0.5059227623886435,0.9221786504965455,1.5883962139695729,1.1494089942824268,1.262019327641649,1.70720887078284,1.0330274002234607,0.19730190870414938,2.275774755908788,1.101097699486246,0.5596209920982089,1.1900439456868903,0.9379710059737693,0.8432858921423795,0.9063163762119255,0.6841303006176531,0.6331161426918245,0.29814248922457204,0.9413341970806645,0.803068817702014,1.2323039356553036,1.0273517730074424,0.8353365345674062,0.6639709929752072,0.5364040140448083,0.29047684478763547,0.5738478703380591,0.764003990218353,0.6062673738923934,0.8057150307055475,0.6051994303435914,1.1045317097023741,1.1777820578326528,0.8372564160843471,0.5442221698607799,1.1679190970052553,1.0737844863730075,0.5997975463982029,0.25219191670742136,0.5877914513260577,0.8475470171852936,1.0466990639414187,0.9407583764147462,0.5412023479466116,0.3116329248776195,0.45373404034158754,0.6763615932478287,0.7259360914256276,0.3005107119296312,0.32417749219798436,0.7460905900577399,0.862198231742456,0.7985420035543884,0.4656114409862093,0.23856942622792088,0.3157030626976124,0.26782544465345043,0.07741861553676993,0.5657907880536669,0.8517027907277724,0.8624908990429525,0.6976692445908965,0.3648055433960583,0.3822131599692483,0.42722332060043844,0.3566107329941642,0.4637108841340155,0.5214941722565485,0.31978535281381176,0.39499957023676685,0.39339989746122794,0.34435882769139675,0.18380346559176322,0.17556153089936183,0.5166410466732538,0.46041541662946034,0.2605537794555967,0.5204300080199846,0.7930990995104895,0.4866672666517905,0.11655555253776717,0.28826857502763487,0.1314727044743227,0.22886404210326364,0.7621727333742865,0.7795778718685544,0.6280103173012067,0.34644990369390705,0.5755912445268253,0.4207663862156789,0.08211135755971191,0.505005509375336,0.7665672932251121,0.72265625,0.7665672932253603,0.505005509375226,0.08211135755975135,0.4207663862155178,0.5755912445267718,0.3464499036937216,0.6280103173012754,0.7795778718685386,0.762172733374228,0.2288640421031564,0.1314727044742947,0.2882685750276432,0.11655555253784175,0.486667266651652,0.7930990995104418,0.5204300080196599,0.2605537794556313,0.46041541662988517,0.5166410466732643,0.1755615308993569,0.18380346559178948,0.34435882769126736,0.3933998974613404,0.3949995702366713,0.3197853528141516,0.5214941722565141,0.4637108841340532,0.35661073299420687,0.4272233206007052,0.3822131599692445,0.3648055433958741,0.6976692445910955,0.8624908990429991,0.8517027907276432,0.5657907880535138,0.07741861553652965,0.26782544465329733,0.3157030626973283,0.2385694262273995,0.4656114409855543,0.7985420035541382,0.8621982317424642,0.7460905900575872,0.3241774921979388,0.3005107119293883,0.7259360914257048,0.6763615932476772,0.45373404034174136,0.31163292487808103,0.5412023479467988,0.9407583764149311,1.0466990639413314,0.8475470171852749,0.5877914513262004,0.2521919167074276,0.5997975463984656,1.0737844863729868,1.1679190970052875,0.5442221698609423,0.83725641608455,1.1777820578326421,1.104531709702323,0.6051994303435863,0.8057150307056942,0.606267373892422,0.7640039902183408,0.5738478703380476,0.290476844787696,0.5364040140447347,0.6639709929754015,0.835336534567597,1.0273517730075556,1.2323039356554988,0.8030688177024771,0.9413341970807892,0.29814248922451186,0.6331161426919305,0.6841303006179374,0.906316376212093,0.8432858921416613,0.9379710059742898,1.1900439456867875,0.5596209920982985,1.1010976994859052,2.2757747559086074,0.1973019087040692,1.0330274002235966,1.7072088707831754,1.2620193276416518,1.149408994282522,1.588396213969574,0.9221786504964475,0.5059227623887076,1.7043835656694437,1.3073183964975212,0.867273196310723,2.5594077307496583,2.412759978926064,1.2049173918260878,2.9728559424042533,3.4773044712766867,1.2883440256307066,2.3021409816533396,3.7075519259068246,3.3292034046134495,4.810705582796219,4.816386477269683,0.7275025965665481,6.528090762692486,10.515604704962245,8.622306092829131,3.507728821396559,3.6202929534281543,3.388094950438819,7.175745224698928,8.67288986676595,1.1493782985236,17.937020373364508,37.06063938485986,1
75.859375,21.687199753111035,6.257866452771301,6.869791272776356,6.109958931559862,1.776678594546486,2.9662462728609493,1.2396023785178665,3.540909851411428,3.552432338190899,0.7206548636621676,1.5686768232891468,1.2985085360423276,1.2619823035680722,1.0281647967025316,0.329368922141013,1.4858701403648413,0.996067391482852,0.7614985115700571,1.4703844526790315,0.2088121605743753,1.5354249034046639,1.194857809397382,0.43525476857536866,0.1796472902063551,0.12252249471374689,0.5464403507417219,0.5342933768568808,0.8591038296844664,1.0723603247586497,0.9076999314644765,0.4853515799108437,0.7250146511413974,0.4754994712471233,0.49803363178968585,0.6483352416566602,0.20981390393354454,0.3375621253804761,0.684773074806437,0.35037079151147754,1.0024760110701865,0.22332242966952562,0.6649786160807448,0.9509117579090011,0.25007047646338115,0.27645098811344887,0.5280861789850186,0.23365743218602145,0.6984135996187876,0.7476636352001141,0.39051911694891867,0.512003171955171,0.8120321877341847,0.3912986022766421,0.45798434432027413,0.5653610479797512,0.23636101415172017,0.5977488248142514,1.338159583678022,0.9551583790300748,0.20073051553805576,0.11492983882639642,0.16932321921576576,0.09895404619996788,0.19670039711344192,0.1842644284530739,0.07496435368366396,0.3510509745483636,0.589671807143525,0.2187991946798457,0.29581717492939724,0.6540445676408231,0.8407001621390393,0.7497519498396602,0.23199101055361884,0.4179622179814503,0.5113516464349719,0.20552786534616793,0.36447286402176926,0.4846194375100037,0.21961802875055678,0.24387484438840726,0.2830960996103309,0.4387593353326204,0.24035411608198934,0.29948281249957087,0.3959638363043686,0.2808316510173508,0.11044012964320887,0.2740512993670543,0.6106117703398436,0.35768810848183646,0.3052219349940649,0.21651539564078595,0.4399992950189129,0.3706699660726167,0.33055445792438964,0.5872025381569328,0.4270123953027455,0.5342074002961775,0.576775244904185,0.20000134392724112,0.5050645672415083,0.8502522170801459,0.5983305766963604,0.2023407065556083,0.39323839474576394,0.27434130154218306,0.21335997683471059,0.16190240455187846,0.3469987646650363,0.3360605533903567,0.46655042710012173,0.6947041700131369,0.3598080862027209,0.3570821252520272,0.38173402729440975,0.28235673332583716,0.4340770774338669,0.2353654713624889,0.009765625,0.23536547136276456,0.43407707743383045,0.28235673332587724,0.38173402729432665,0.35708212525183347,0.35980808620262866,0.6947041700131598,0.4665504271001491,0.33606055339035584,0.34699876466510027,0.16190240455187868,0.21335997683462726,0.2743413015422181,0.3932383947458701,0.20234070655570344,0.5983305766967022,0.8502522170802105,0.5050645672419692,0.20000134392731475,0.5767752449042434,0.5342074002962185,0.4270123953030785,0.587202538156934,0.3305544579245344,0.3706699660724323,0.4399992950189958,0.21651539564077335,0.30522193499400946,0.35768810848193505,0.610611770339892,0.2740512993670983,0.11044012964302895,0.2808316510173177,0.3959638363043404,0.2994828124996594,0.24035411608186633,0.4387593353326436,0.2830960996100462,0.2438748443883334,0.21961802875032316,0.4846194375097173,0.3644728640214885,0.2055278653463229,0.5113516464349448,0.41796221798125643,0.23199101055354798,0.7497519498396443,0.8407001621391207,0.6540445676405492,0.2958171749295068,0.21879919467977782,0.5896718071435537,0.3510509745484124,0.0749643536838018,0.1842644284530528,0.19670039711341583,0.0989540461999676,0.16932321921575663,0.114929838826581,0.20073051553803076,0.9551583790301319,1.3381595836779807,0.597748824814332,0.23636101415166916,0.5653610479799707,0.45798434432039214,0.3912986022767318,0.8120321877341751,0.5120031719551322,0.3905191169493153,0.747663635200057,0.6984135996185955,0.23365743218615004,0.528086178984956,0.276450988113306,0.25007047646321695,0.9509117579089278,0.6649786160810506,0.22332242966956464,1.002476011069504,0.35037079151095507,0.6847730748066695,0.33756212538048813,0.20981390393340069,0.6483352416566865,0.49803363178971155,0.4754994712473007,0.7250146511412006,0.4853515799107676,0.9076999314643805,1.0723603247586244,0.8591038296846175,0.5342933768568683,0.5464403507418059,0.1225224947137146,0.17964729020618309,0.43525476857515477,1.1948578093975175,1.5354249034048073,0.20881216057447138,1.4703844526790233,0.7614985115701567,0.9960673914828935,1.4858701403648353,0.32936892214106805,1.0281647967025929,1.2619823035681939,1.2985085360422683,1.5686768232890047,0.720654863661839,3.5524323381909295,3.540909851411491,1.2396023785177668,2.966246272860801,1.7766785945463992,6.109958931559973,6.86979127277671,6.257866452771458,21.68719975310993,1
160.087890625,74.4119573207714,33.0826890928845,11.872473422583338,21.44397519114165,14.124548857723878,8.068625813586404,14.11219286908806,10.442392719967513,4.824432007726246,8.870537765892621,8.277383328452279,4.371095004580379,2.5572375658513278,1.5247897004274755,3.677974187086269,4.828608994201934,3.980511259275805,1.994020413742684,1.6230284079861341,1.6172626039543232,2.6648925436433206,2.8668878221114067,2.7159723382238683,1.6629709718383008,0.7687685245053667,1.6304031680264592,1.9672214832799684,1.7499014413851954,0.9499369838573916,0.3667875204924107,0.5943003437468087,0.7087895454332118,0.5165736493085706,0.1794860687891626,1.1892768047058269,3.911097499688659,1.8663600537727283,0.6317913824144907,0.7865618213424485,1.183576023485255,1.0093410136398007,0.4626876456313132,1.0349456087594984,1.3691843612302197,0.8588467508468796,0.37849740879189014,0.5747673906131685,0.6264386212002048,1.4000492441843577,1.6830609897329318,1.860787131029776,1.7794884944906417,0.8102481210614199,1.3281491042805011,0.3571617649600967,0.8247555825550555,1.1639458972798187,1.3473699733208568,1.6741867675293802,2.2642986756236128,2.64147325142617,2.0138203175128497,1.4302684377761117,1.0710760774824797,0.9424238697795977,1.0078487102687208,0.9550971424376764,1.0814517828616717,1.1726896195627923,0.9637037381413819,0.6950407946459574,0.8432954804113162,0.6738539102384999,0.5215044392993947,0.6562880251670984,1.139535825143278,1.2544255802793483,0.700527463793051,0.5359954900928933,1.6916531917743762,2.210406262720086,1.9989345264279756,1.587143599117652,1.7756911567958675,1.9571775140406487,1.8468987327251272,1.6022826734864208,1.1580409054041498,1.04093916609935,0.9732031260114912,0.8566204287272432,0.5307505211583311,0.15645989735740454,0.3140692878767562,0.2140001282253142,0.2806019420622012,0.7155977395730114,0.8483502579673006,0.5231033953586257,0.6985728292254446,0.8933494456344369,0.6185161436991404,1.4419512137527364,2.351857275667352,2.643060539288225,1.3526619559820214,0.7559234363669054,1.61209264781264,1.8450106699030264,1.3005720396120706,0.45431404104966305,0.318015086434855,0.48734151607376497,1.2685607978244524,1.6315216438906153,1.1501536445913623,0.9780364729513307,1.4260520758894621,1.349341415768532,0.830078125,1.3493414157692984,1.4260520758896977,0.9780364729514208,1.1501536445920602,1.6315216438912576,1.2685607978247402,0.48734151607411125,0.3180150864348303,0.4543140410502904,1.300572039612123,1.8450106699032067,1.6120926478126212,0.7559234363670835,1.3526619559815378,2.643060539288117,2.3518572756662506,1.4419512137524175,0.6185161436995341,0.8933494456347495,0.6985728292253683,0.5231033953588163,0.8483502579678478,0.715597739572872,0.2806019420622921,0.21400012822477593,0.31406928787642224,0.15645989735734955,0.5307505211584397,0.8566204287280118,0.9732031260124445,1.0409391660993703,1.158040905404535,1.6022826734861955,1.8468987327248867,1.9571775140403473,1.775691156794902,1.5871435991169698,1.9989345264270526,2.210406262720033,1.6916531917742001,0.5359954900916459,0.7005274637919885,1.2544255802786115,1.1395358251427354,0.656288025166534,0.5215044392991668,0.6738539102381883,0.8432954804125294,0.6950407946468178,0.9637037381410459,1.1726896195623717,1.0814517828616166,0.955097142437429,1.0078487102685831,0.9424238697797431,1.0710760774821182,1.4302684377763553,2.013820317512732,2.641473251425551,2.264298675623512,1.6741867675290936,1.3473699733209124,1.1639458972798615,0.8247555825550612,0.3571617649605408,1.3281491042806137,0.8102481210614805,1.7794884944911848,1.860787131030007,1.6830609897334354,1.4000492441846777,0.6264386212010644,0.5747673906132988,0.3784974087922954,0.8588467508469273,1.3691843612307255,1.034945608760034,0.46268764563123843,1.0093410136379033,1.1835760234854662,0.7865618213451104,0.631791382414039,1.8663600537718088,3.911097499687619,1.1892768047045479,0.17948606878870227,0.5165736493086397,0.7087895454336598,0.5943003437470746,0.36678752049249697,0.9499369838570765,1.749901441385509,1.9672214832800141,1.6304031680263447,0.7687685245057664,1.6629709718388983,2.7159723382229766,2.8668878221114005,2.664892543643211,1.6172626039540599,1.6230284079858373,1.9940204137425017,3.980511259275316,4.828608994201693,3.677974187086408,1.5247897004275714,2.557237565851023,4.371095004580507,8.277383328452554,8.870537765893898,4.8244320077249,10.442392719967364,14.112192869087577,8.068625813587136,14.124548857723859,21.443975191142098,11.872473422584394,33.08268909288331,74.41195732076977,1
208.5302734375,87.68445874868378,24.16558782536071,24.848188776414016,17.298508259946033,9.664253704376687,17.642299601801067,8.421950481157626,9.400841376926138,5.681135685676537,4.779632316770316,6.738272217457591,4.10919865391416,8.01119191609989,5.387272714088923,1.9896930327425673,5.544439688546087,4.017066810200694,2.358426579458508,3.998504208184312,3.6431556535177556,1.3198871533602263,3.566774322350608,3.538414339362384,1.805352120685816,2.3629712874115922,2.41362825709391,2.206108813962322,1.488558300585397,0.5445040524721643,2.4303581755313908,2.2577575349058527,2.154997401618647,2.1518333085573187,3.278231241803931,4.116348757899671,3.7023629024700715,1.2364161108670493,2.588693160739477,2.630855653685709,0.4864467491500316,0.8211420559524758,2.0420556799672283,2.4876878628195973,2.278076784579361,1.8212171103702846,0.3705284245219619,2.033043907236733,2.135657867520081,1.0545944016610547,2.723527546701369,2.4138512044706024,2.181648609264556,3.541507987096062,2.5434183331215094,1.5002700075130797,1.6842481850882391,2.244653791297252,2.2316512062785026,2.0469020048517512,1.6192174877149703,0.4269135155205898,2.3076506144191793,2.6625509740050335,2.2456552973829864,1.94782533306227,1.2023953463453567,0.20447197823708213,1.1179201719569611,1.9377584835976163,1.8420248153081562,0.4942561575768031,1.557075282966997,2.6021630881791284,2.515107202531235,0.9261455351803305,1.1740950606006153,2.2337079572928626,1.5464566893652096,0.5870986747985819,1.376598123008646,1.3236535198738417,1.7692845891094637,2.0236218392502185,1.8209579725706218,0.6736993877054387,1.106369593629762,2.009720837401343,1.9475400420388116,1.2375943131352032,1.3453502094670096,1.639121083024175,1.318148440747651,1.107683268811204,1.1834322593287316,1.7486995969408075,1.640721973193923,1.022654279228609,1.5229770895601142,2.022605513142768,1.9134864125308808,1.3211911593393784,1.4664459450379856,0.9485017629081715,0.9338658534128281,2.157375224961091,2.916412498754131,1.4930576326494895,1.18918251801543,1.8783035977682023,1.3659332805644153,1.3040381009136583,1.0668969012981122,0.6502165213129678,0.6218723400399608,0.7183885968080015,0.7773756677331065,0.8153918263186595,1.2558809034222689,1.0293932106605332,0.1708984375,1.0293932106607335,1.2558809034223755,0.8153918263185214,0.7773756677327746,0.7183885968074832,0.6218723400397317,0.6502165213129688,1.0668969012979725,1.304038100913432,1.3659332805641025,1.878303597767937,1.1891825180156743,1.4930576326493206,2.9164124987538154,2.157375224960957,0.9338658534121848,0.9485017629077086,1.466445945037749,1.3211911593392085,1.9134864125308242,2.022605513142676,1.5229770895613508,1.0226542792286029,1.6407219731935414,1.748699596941581,1.1834322593291136,1.1076832688112555,1.3181484407475306,1.639121083023967,1.3453502094673961,1.2375943131351785,1.9475400420379565,2.0097208374011064,1.1063695936300109,0.6736993877056612,1.8209579725712433,2.0236218392496053,1.7692845891091464,1.323653519874134,1.3765981230108484,0.587098674801224,1.5464566893651657,2.2337079572925207,1.1740950606005673,0.9261455351802906,2.5151072025316026,2.6021630881788314,1.5570752829679135,0.4942561575770331,1.8420248153079088,1.9377584835973165,1.117920171957096,0.20447197823711857,1.2023953463449581,1.9478253330622255,2.245655297383322,2.6625509740050726,2.307650614419252,0.42691351552022805,1.6192174877152958,2.0469020048519466,2.2316512062782663,2.244653791297316,1.6842481850883686,1.5002700075124777,2.5434183331213878,3.5415079870958244,2.1816486092642093,2.4138512044705234,2.7235275467004967,1.0545944016612971,2.1356578675208806,2.0330439072365025,0.3705284245210945,1.8212171103705062,2.2780767845800924,2.4876878628196923,2.042055679968036,0.8211420559539876,0.48644674914772457,2.630855653687235,2.5886931607393837,1.2364161108669554,3.702362902470023,4.1163487579007905,3.278231241803946,2.1518333085572423,2.1549974016178868,2.257757534906166,2.43035817553122,0.5445040524726299,1.4885583005851508,2.2061088139621554,2.413628257093593,2.362971287411476,1.805352120685687,3.538414339363146,3.5667743223504704,1.3198871533601038,3.643155653518062,3.998504208184379,2.3584265794584436,4.017066810200142,5.544439688546281,1.9896930327425875,5.38727271408853,8.011191916100039,4.109198653914084,6.7382722174572764,4.779632316770889,5.681135685676196,9.400841376925646,8.42195048115736,17.642299601801238,9.664253704376717,17.29850825994516,24.848188776412858,24.165587825361182,87.68445874868085,1
56.09375,22.679705463182476,7.738531107526862,5.4873735724855255,7.954194145671744,3.3176847988978633,1.4624827495109431,2.3750242295604775,1.530923183467343,1.2092651760930635,2.1026303764345835,1.4834474394768455,0.963205281714526,1.6805668324898306,2.7404298409011396,1.8925362775404806,0.13978479307826122,0.7124969028818608,1.488828368679287,0.386704240618032,1.0277240669190129,1.0370095030497453,0.45034725945102255,0.40745848891405195,0.3658892397639809,0.4555732908571669,0.04415128570703582,0.5716757398581932,0.28734483212370626,0.3271327487597323,0.6300396216048944,0.5975075094397816,0.7685384559436377,0.5407739336149607,0.42824372547946843,0.46465467393894805,1.5905685160695715,0.7997107837016812,0.21565014492644732,0.9452519447268606,0.8962455215235198,0.6977389571737563,0.44244876101370095,0.10142939780421692,0.526278063436781,0.11860905629322588,0.48495170696264694,0.9569874421408167,0.9955356669964511,0.7894630571669211,0.4029555205228433,0.4356997086098637,0.5502816387775687,0.7616560888446368,0.5458405323426433,0.6490661080797634,0.4054277188065649,0.34143459120270303,0.27369509394421204,0.5387851615645687,0.7373531906645199,1.0233611294157652,0.5245887811340435,0.10994705488856064,0.6343771120823813,0.39830431063600724,0.09810177971405876,0.10525399917215464,0.15294518597032103,0.08098074243244717,0.1807522880143942,0.20853891851283068,0.20024760022367288,0.066904666920776,0.3652399347745272,0.24466622806060667,0.42319172073438294,0.31617394530969933,0.4114036031289022,0.44389089747606386,0.30543933931693484,0.1735093607087416,0.6249775117038678,0.49899397183290206,0.6850599819524105,0.6669247061782541,0.4253208879930423,0.2856572530300966,0.18003952731299103,0.5009134539358566,0.39676309724438286,0.1325069441393488,0.2839856129759496,0.38624430868019066,0.2769104707578328,0.6396551766025128,0.6874823040749429,0.5796190018704582,0.4400499220593265,0.416555308613782,0.7122056701487168,0.6025851634086974,0.4518836989296701,0.6344964414528322,0.6813617617021315,0.3606692850955162,0.12206258550214116,0.5212602948514078,0.6553987569289877,0.3280095880793446,0.37666628590131834,0.45794666611592033,0.357627585448818,0.13828015217393716,0.13026862355330052,0.41493771945015717,0.6672690185437217,0.8349286764990215,0.7434787025059274,0.32710806150063815,0.21484375,0.3271080615005207,0.743478702506002,0.8349286764989846,0.6672690185437281,0.41493771945007496,0.13026862355337487,0.13828015217396666,0.35762758544888906,0.45794666611595686,0.3766662859014049,0.3280095880793207,0.6553987569289734,0.5212602948513718,0.12206258550221787,0.36066928509556767,0.6813617617018826,0.6344964414527737,0.4518836989293864,0.6025851634087018,0.7122056701486412,0.41655530861380147,0.4400499220592898,0.5796190018704338,0.6874823040749826,0.639655176602359,0.2769104707578793,0.3862443086802294,0.28398561297600655,0.13250694413916556,0.39676309724429787,0.500913453935763,0.18003952731303818,0.28565725303005474,0.4253208879929818,0.6669247061782039,0.6850599819523409,0.49899397183286587,0.6249775117036369,0.17350936070830975,0.3054393393173067,0.4438908974766115,0.41140360312898844,0.3161739453096817,0.42319172073440775,0.24466622806057728,0.36523993477448385,0.06690466692078685,0.20024760022384955,0.2085389185127287,0.18075228801442764,0.0809807424324145,0.1529451859703577,0.10525399917217061,0.0981017797139635,0.39830431063598093,0.6343771120822579,0.10994705488858075,0.5245887811340169,1.02336112941578,0.7373531906645321,0.5387851615645147,0.2736950939441786,0.34143459120268976,0.4054277188065635,0.6490661080795769,0.545840532342613,0.7616560888445856,0.5502816387775887,0.4356997086098793,0.4029555205227709,0.7894630571669303,0.9955356669963432,0.9569874421408953,0.48495170696282386,0.11860905629307235,0.5262780634368758,0.10142939780428363,0.4424487610138643,0.6977389571734822,0.8962455215240156,0.9452519447264541,0.21565014492646006,0.7997107837017108,1.5905685160697574,0.4646546739391583,0.4282437254794449,0.5407739336147909,0.7685384559435026,0.5975075094398418,0.6300396216048602,0.3271327487596885,0.2873448321236302,0.5716757398582238,0.0441512857068982,0.45557329085715925,0.3658892397639353,0.4074584889140703,0.4503472594511376,1.0370095030498845,1.027724066919009,0.3867042406180847,1.4888283686793973,0.7124969028817261,0.1397847930782721,1.8925362775405172,2.7404298409010717,1.68056683248984,0.9632052817144906,1.483447439476817,2.1026303764344227,1.209265176093171,1.5309231834674688,2.3750242295603985,1.4624827495109514,3.3176847988976723,7.95419414567182,5.487373572485894,7.738531107526652,22.67970546318176,1
64.248046875,22.700470696989576,6.636261648218578,6.460133713146768,7.230163823478967,1.8904922100274864,3.569937720190286,3.7157969098392165,0.5750557721010002,2.6340577126275484,1.812056563321864,1.8575105020905338,0.7163863820517493,1.2163155593987074,2.744370538626404,2.638964003372206,0.5826368360445565,2.392681608857404,1.972864575363527,0.7502978703149938,1.9780556474768718,1.6193595763334103,0.6145190904702068,1.0354717471620603,1.1969903560922235,0.6149559370559903,0.9875071282284076,1.3692964785006607,1.0064214960848148,0.7937687940964738,0.4323629977958017,0.6741732977632316,1.605808527408302,1.6413436549361387,0.4478818137598733,0.6813293637575895,0.8489732810876971,1.059244488943453,1.1293832660919232,1.034927992981936,0.6040297605244311,0.6169369567584803,0.9916357937692551,0.5357696567253752,0.13722846524975937,0.4615799084434778,0.3105554499771706,0.31151601371697374,0.4332391323433691,0.5073463679648594,0.38781495143050543,0.24182402856867638,0.40459491322372165,0.7421813532742028,0.3535342245526627,0.35848644037178756,0.5882312560679736,0.2933138019875162,0.23770294477869042,0.6413176775404255,0.26646022753210824,0.4838452585786505,0.5887831274424906,0.37702148011943115,0.44554861471595725,0.23222556942134182,0.42071441344313676,0.12596256721614013,0.7901684037026363,0.49210637181834077,0.36666777318440386,0.6691589222507227,0.5802047674954709,0.4125017174367995,0.0567270970635753,0.3535914862823824,0.2886227177077015,0.08843390398505914,0.21700768223012695,0.2496724058134684,0.5142276208853938,0.7996017290570165,0.48495696768252844,0.2655900872301683,0.7364100281759952,0.8466358401183491,0.6165276471122146,0.6292062900120988,0.5898653127715398,0.5655693513099778,0.442461005412661,0.20414115843069913,0.5307631201044293,0.41725912648504765,0.21141303551981624,0.37366554114878603,0.5353409508089807,0.28524488095003764,0.44324960909152844,0.7583825845005089,0.3527572187943629,0.06265219757059792,0.24253874691444935,0.2150709351922246,0.6896740924951862,0.5116234074006171,0.5266106879715579,0.2150920461946341,0.33723426614983015,0.4219746268749134,0.1453962805525863,0.2890094122570952,0.26200781944519946,0.1251133694113483,0.19551009679390902,0.23111222030424328,0.20423373918881893,0.25411180326826893,0.3080309472952024,0.32586098022700594,9.56450722599015e-14,0.32586098022728865,0.30803094729516206,0.25411180326827437,0.20423373918870627,0.23111222030419062,0.19551009679383538,0.12511336941135703,0.26200781944519524,0.2890094122571287,0.1453962805526012,0.4219746268748519,0.3372342661498562,0.21509204619467306,0.5266106879716512,0.5116234074005607,0.6896740924954605,0.215070935192262,0.24253874691477942,0.06265219757056259,0.3527572187943266,0.7583825845005584,0.44324960909170263,0.2852448809499936,0.535340950809046,0.37366554114888695,0.21141303551990281,0.41725912648500035,0.5307631201043957,0.2041411584309298,0.4424610054128324,0.5655693513101153,0.5898653127714534,0.6292062900121284,0.6165276471122424,0.846635840118379,0.7364100281761652,0.26559008723011873,0.48495696768284924,0.7996017290569961,0.5142276208856589,0.24967240581357494,0.21700768223013198,0.08843390398497113,0.2886227177076558,0.35359148628246,0.056727097063708445,0.4125017174367482,0.5802047674955398,0.6691589222505888,0.36666777318445765,0.49210637181834543,0.7901684037026508,0.12596256721610788,0.4207144134430258,0.23222556942133746,0.4455486147161147,0.3770214801193537,0.5887831274424702,0.483845258578514,0.2664602275321469,0.6413176775404907,0.23770294477867956,0.2933138019874828,0.5882312560679664,0.3584864403716177,0.3535342245525643,0.7421813532742431,0.40459491322379043,0.2418240285685937,0.3878149514304167,0.5073463679649589,0.43323913234346023,0.3115160137170131,0.310555449977221,0.4615799084433899,0.13722846524962018,0.5357696567254538,0.9916357937694843,0.6169369567581126,0.6040297605240313,1.0349279929821291,1.12938326609173,1.05924448894344,0.8489732810876849,0.6813293637574196,0.44788181375983704,1.6413436549361777,1.6058085274080507,0.6741732977632359,0.4323629977957767,0.7937687940963218,1.0064214960847637,1.3692964785006696,0.9875071282283004,0.6149559370559964,1.196990356092279,1.0354717471618664,0.6145190904701107,1.619359576333394,1.9780556474769808,0.7502978703150734,1.972864575363551,2.392681608857359,0.5826368360445584,2.6389640033722612,2.7443705386263475,1.2163155593986088,0.7163863820517719,1.85751050209047,1.812056563322048,2.6340577126274067,0.5750557721009398,3.7157969098390726,3.5699377201903895,1.890492210027377,7.230163823479073,6.460133713147185,6.636261648218247,22.700470696988724,1
200.6494140625,21.472504474555276,2.9080026836927546,13.77892402865624,22.702573680531785,18.60262978359305,19.81858107807839,14.650813913687804,13.935857746998533,14.912260666301925,15.726287114595719,10.439916599406988,8.270071674824344,15.784248109267354,14.416095296896458,10.467675514078813,3.8258583130649204,4.279504008647522,9.20833973356283,14.583703500655831,8.79070886580238,3.419940006299068,6.859197544734783,8.408995582631434,9.159026277378526,5.03777058513095,3.235725849899083,7.462058520961994,8.614946382178736,5.253200788311046,2.596904714489273,1.7283480034484286,5.8399887531679076,6.796977699934971,3.369501987370199,1.2972777266659852,4.511775383311498,3.3228352836371493,4.685003390294242,2.8262874563010474,2.4964068340304504,3.500918446889393,4.1252499099791,1.288791903013244,3.8943017324286404,0.5357560161686417,4.025348614643538,2.6253588055469086,2.522925737777227,1.0981772615108507,2.105609654747412,2.025260247006835,2.6047824797680095,2.0638565940930893,1.1279068610977916,1.2371630990218567,1.747294556423898,2.202990624994278,2.439601906127961,0.2572996756134701,1.1825784791869374,1.9196921284673887,1.875312798698511,1.2152106794524107,1.8236455761983648,0.8392123453946392,1.5624572187162042,0.4883328541380474,1.69118244890939,0.8133378242229374,0.15213340008536558,0.6018256249267109,1.5217559787937622,1.50029336804842,0.11385256600459939,1.0673656691438118,1.9347301111836381,1.3928262457762077,0.8360608168551322,1.2145359202244252,1.6794958670657685,0.9564857754879666,0.9990435468916389,1.8388974909067521,1.1571996690417607,1.8308079768594692,1.3358220119931357,0.4086122819905498,2.2836612844442854,1.818323503442969,0.1267408559276243,1.306742871446304,1.535649804368042,0.7200652718117162,0.8561068320390226,1.0900009849612065,0.2731356233960282,0.2185798543470613,0.8840386798047591,0.3930271568754921,0.5531615365615399,0.503568593552092,0.21854352068210103,0.3337453405604462,0.20992467216094007,0.902515230519167,0.5952941247545538,0.18851698397068653,0.3263937306388003,0.6233087553525513,1.050038299829844,0.5324670986195331,0.6543037853716842,1.2561277890108284,0.5451252633984702,0.3347886461692636,0.2629607897899982,0.9189518862553943,0.8021794430456244,0.4321891259538776,0.7373046875,0.43218912595468406,0.8021794430458558,0.9189518862554682,0.2629607897904553,0.33478864616872367,0.5451252633983533,1.256127789010678,0.6543037853719422,0.5324670986194617,1.0500382998302138,0.6233087553531218,0.3263937306387687,0.18851698397084382,0.5952941247553433,0.9025152305196016,0.20992467216239952,0.33374534056063193,0.21854352068285227,0.5035685935525485,0.5531615365619305,0.39302715687540085,0.8840386798036495,0.21857985434645272,0.2731356233959382,1.090000984960893,0.8561068320385475,0.7200652718120403,1.5356498043676137,1.306742871446461,0.1267408559273498,1.8183235034435163,2.283661284444504,0.4086122819901994,1.3358220119929318,1.8308079768595835,1.1571996690420177,1.8388974909067697,0.9990435468923348,0.9564857754883713,1.679495867067271,1.2145359202234294,0.8360608168550557,1.3928262457766414,1.9347301111836213,1.0673656691437612,0.11385256600409216,1.5002933680484332,1.5217559787928472,0.6018256249266098,0.15213340008522955,0.8133378242235706,1.691182448908984,0.4883328541382822,1.5624572187163333,0.8392123453947093,1.8236455761983017,1.2152106794525783,1.8753127986996514,1.9196921284679274,1.1825784791867298,0.2572996756132244,2.439601906128386,2.2029906249943774,1.7472945564238263,1.2371630990210403,1.1279068610971474,2.0638565940931106,2.6047824797681667,2.0252602470068215,2.105609654747179,1.0981772615114338,2.522925737777458,2.625358805546559,4.025348614642838,0.5357560161703727,3.89430173242977,1.2887919030128168,4.12524990997879,3.5009184468896417,2.4964068340303367,2.8262874563035165,4.685003390295047,3.322835283637145,4.511775383310217,1.2972777266656588,3.3695019873708336,6.7969776999351055,5.839988753166336,1.7283480034483805,2.5969047144900936,5.253200788311229,8.614946382178124,7.462058520961541,3.2357258498993775,5.03777058513135,9.159026277377723,8.408995582630236,6.85919754473478,3.419940006298638,8.790708865801852,14.583703500655918,9.208339733562816,4.279504008647406,3.8258583130651034,10.467675514078252,14.416095296896367,15.784248109266928,8.270071674824106,10.439916599406759,15.726287114594516,14.912260666301076,13.93585774699967,14.65081391368803,19.81858107807843,18.60262978359276,22.702573680532414,13.778924028655549,2.908002683691057,21.472504474558008,1
189.7314453125,22.403683464999613,8.80599067797803,6.5236180646129345,3.9328345914644243,4.158083726166252,3.979399669039894,1.7525105533420189,4.428508299387275,5.055866641288619,3.8737864480751907,3.6139458830917093,2.217036239550652,2.8611924767667056,2.994216916139689,3.4059042579805996,2.4192800014532625,0.8599567051256419,1.34850795254223,1.679056422214941,1.5106830006772332,1.3029307195591577,0.7839144457333412,1.5401346864299335,1.160943051906795,1.1702695525767752,0.8558567871162291,0.6021169684338412,1.2550619376386511,1.0638182906599865,0.43274803077244295,0.46957248866124396,0.6214036603754713,0.6388162888499475,0.5409576242163869,1.088941006550415,1.1833505252559786,0.18381928706421782,0.6169610764307915,0.2594778772220966,1.186925247036557,0.8152010309505405,0.37971033186211467,1.0261564615327146,0.21133680202381214,0.4399837976359985,0.7187451448168348,0.6197044056659183,0.5381887030718059,0.3841855972162785,0.6057056221024273,0.42472110665369694,0.5909296450276187,1.0298553741879923,0.6411167391388385,0.31850734236100403,0.22594977981730247,0.405270657764835,0.5532611400442348,0.5593270881109653,0.36686140148943147,0.7394376014177301,0.4209822939476221,0.24183388080037543,0.23510782424413398,0.19953602045742422,0.283886529859077,0.2280993848179135,0.4184310754404856,0.8004652863536064,0.4722042934954628,0.26593937301765336,0.6019270491937825,0.4985175258658099,0.4789863750462493,0.08173999501532603,0.37165858190504175,0.9083447938136638,1.0247061804886772,0.4187683853588092,0.5749913422301486,0.4873503071103466,0.4158887492129139,0.1969793961157941,0.4936239856443548,0.3718689005188596,0.5239174945095806,0.9597269033994891,0.23207362579698693,0.3175029926399325,0.5378034158081898,0.4750428726297341,0.8555663661356875,0.5249068174310533,0.3575377542987463,0.6455649725152514,0.4473658535630799,0.4932096471951836,0.6755983416674799,0.8765343888499909,0.5877888357721501,0.4403423042504771,0.5920172857189743,0.2534991832699802,0.5034739399030468,0.3496998038058634,0.47922065720061163,0.6396097386615434,0.4707759721138099,0.4383487560263734,0.6264686813245863,0.8057842238890311,0.9166757181892401,0.43194103879495416,0.7435445020440424,1.0808128237200996,0.39337134705775895,0.09612945183357742,0.30650760957059114,1.0451868363325805,0.8740234375,1.0451868363332764,0.30650760957033546,0.09612945183366714,0.39337134705816246,1.080812823720662,0.7435445020439883,0.43194103879516466,0.9166757181893795,0.8057842238890583,0.6264686813244715,0.43834875602625645,0.47077597211389266,0.6396097386615954,0.4792206572002139,0.34969980380562354,0.5034739399040875,0.2534991832698346,0.5920172857180066,0.44034230425070303,0.5877888357725309,0.8765343888500023,0.6755983416683357,0.49320964719501975,0.44736585356311137,0.6455649725156752,0.35753775429851564,0.52490681743108,0.8555663661355067,0.47504287262912914,0.5378034158082972,0.3175029926403214,0.23207362579671847,0.9597269033995133,0.523917494509623,0.3718689005188373,0.4936239856446808,0.19697939611563553,0.415888749213887,0.4873503071113129,0.574991342231477,0.41876838535970823,1.0247061804890703,0.9083447938139582,0.3716585819049644,0.08173999501533132,0.47898637504609576,0.4985175258658413,0.6019270491941755,0.26593937301766024,0.47220429349520815,0.8004652863534617,0.41843107544042396,0.22809938481792214,0.2838865298590958,0.1995360204573923,0.2351078242446384,0.24183388080045848,0.4209822939477657,0.739437601417265,0.3668614014893382,0.5593270881110037,0.5532611400441961,0.40527065776514576,0.22594977981723013,0.3185073423607475,0.6411167391388026,1.0298553741880352,0.5909296450274157,0.4247211066537469,0.6057056221035547,0.38418559721595236,0.5381887030719854,0.6197044056659676,0.7187451448163247,0.439983797635456,0.21133680202360783,1.0261564615331231,0.37971033186204656,0.8152010309489484,1.1869252470375435,0.25947787722282406,0.6169610764315965,0.18381928706417677,1.183350525255603,1.0889410065514855,0.5409576242165611,0.6388162888495801,0.6214036603746564,0.4695724886612897,0.43274803077226215,1.0638182906596414,1.2550619376385777,0.6021169684337805,0.8558567871164142,1.1702695525768414,1.1609430519073622,1.5401346864295773,0.7839144457332364,1.3029307195592923,1.5106830006774743,1.679056422215076,1.348507952541837,0.8599567051263304,2.419280001453241,3.405904257980152,2.99421691613996,2.861192476766757,2.2170362395505716,3.613945883091444,3.873786448075854,5.055866641288346,4.428508299387194,1.7525105533425653,3.979399669040311,4.158083726165698,3.9328345914637817,6.523618064612448,8.80599067797862,22.403683464996195,1
402.001953125,6.2854586051584125,6.818412931076793,0.9215839903945364,1.7197116290355443,0.7842514801471355,1.9363602315937116,2.942171638173329,0.785750359664808,3.3559969781741894,1.1923059125047044,1.4542578737930814,0.26858165959539176,1.376263372124921,0.745852568759871,0.5402415408332545,0.2780686876577325,0.46303498173322327,0.6804105978398924,1.3558717184123026,0.8573587242735643,0.6153959105135584,0.5151589283086936,0.1297117553329391,0.2732166591902221,0.43644876428448387,0.778272082522468,0.4925104642890683,0.13104400377360248,0.12988558818808946,0.1482181526276048,0.5430545579106308,0.044171766063263486,0.3143294135421954,0.13456553905556742,0.32866590875635787,0.32031439108846266,0.24522927416615753,0.23854887286047638,0.3367194070792087,0.2260378320129709,0.15280856228997752,0.3083097768510703,0.28331227365539974,0.2654455607992668,0.47383676909154526,0.3906925614931043,0.41293021906117455,0.5203461337695953,0.4305694635705708,0.5461472886569397,0.38070717785423536,0.4957832671034696,0.7073752268281582,0.7008470434284784,0.41797463112147293,0.37069089094642865,0.21342711192967326,0.29656987469634855,0.5494153992174989,0.5317559917995728,0.35755015392875067,0.2841455262848783,0.2777470162066641,0.31379124800609265,0.2883117731642721,0.29025843789225364,0.3289981844026666,0.4140503707958404,0.5431226849770376,0.49202010271545954,0.6059051645747527,0.5889016721139481,0.36560603977740674,0.43352454883426544,0.36705000350173433,0.14289480522315678,0.07051234178444818,0.1947180497427761,0.3847780592028647,0.548116093108633,0.23986971482753386,0.08466594611302514,0.2980735570969032,0.45276812537328004,0.3764842930101158,0.5284836818850152,0.6004743911516437,0.4117368463737997,0.3781395471696036,0.39687893063198254,0.30266949748727784,0.16772492330479843,0.28252360834574186,0.2541201212941938,0.2908485988312632,0.22737860344822924,0.16711816283352385,0.045051568030819306,0.2946851462550948,0.2740115867970921,0.40301854343403504,0.3521577917710584,0.2146396287814404,0.22966154634169794,0.19350696418932006,0.39281150499669376,0.5344668643236937,0.3521960608494296,0.465614243169228,0.5000935367781627,0.33806848142143814,0.34454516969075843,0.35715392850224154,0.4636040793317675,0.3766866439608279,0.350919771741394,0.23661729269399848,0.31187611993212916,0.5532611026055656,0.419921875,0.5532611026054809,0.31187611993233194,0.23661729269365023,0.3509197717416249,0.37668664396234935,0.46360407933114905,0.357153928502257,0.34454516969014953,0.33806848142139007,0.5000935367786659,0.4656142431688048,0.3521960608497338,0.5344668643235988,0.39281150499645245,0.19350696418901422,0.22966154634194544,0.21463962878141316,0.35215779177344625,0.4030185434335491,0.2740115867968129,0.2946851462549032,0.045051568028734966,0.16711816283342823,0.22737860344864394,0.2908485988301803,0.2541201212945411,0.2825236083457028,0.1677249233043515,0.3026694974863162,0.3968789306311171,0.37813954716976,0.4117368463729578,0.6004743911517778,0.528483681885167,0.37648429300982317,0.45276812537350924,0.298073557096845,0.08466594611378965,0.23986971482801944,0.5481160931119395,0.3847780592015325,0.19471804974221743,0.07051234178415612,0.14289480522248352,0.3670500035017639,0.43352454883457525,0.36560603977693107,0.5889016721138665,0.6059051645758406,0.4920201027154469,0.5431226849774107,0.41405037079566803,0.3289981844026177,0.29025843789160055,0.28831177316448436,0.31379124800627134,0.2777470162073664,0.28414552628544565,0.3575501539281694,0.5317559917994981,0.5494153992175284,0.29656987469631874,0.21342711193047137,0.3706908909463427,0.41797463112039224,0.700847043427677,0.7073752268274499,0.4957832671041902,0.3807071778538554,0.5461472886570813,0.4305694635706602,0.5203461337686522,0.41293021906165006,0.390692561493531,0.473836769090684,0.265445560799395,0.2833122736548376,0.30830977684864413,0.15280856229357181,0.2260378320168534,0.3367194070815614,0.23854887286035575,0.24522927416622278,0.3203143910898462,0.32866590875527446,0.1345655390555547,0.31432941354227584,0.044171766061745076,0.5430545579101488,0.14821815262691448,0.12988558818797807,0.13104400377439107,0.4925104642888272,0.7782720825232167,0.436448764285068,0.2732166591912736,0.1297117553320098,0.5151589283080984,0.6153959105163127,0.857358724274357,1.3558717184125757,0.6804105978390586,0.46303498173184787,0.2780686876575148,0.5402415408320318,0.7458525687594509,1.3762633721246293,0.26858165959528035,1.454257873794312,1.1923059125031126,3.355996978175849,0.7857503596646593,2.942171638172407,1.936360231592384,0.7842514801485664,1.719711629036412,0.9215839903935023,6.818412931075902,6.28545860515042,1
313.8818359375,8.242487337882295,2.117948819040616,2.016548727057141,0.9787572407155529,0.941279510881931,0.6893892742323258,2.9150650793909967,2.6957084796882627,0.726924359685918,1.412391725265862,0.2508812942099972,0.8715160509175592,1.458013741253713,1.1083769392093048,0.3305371974370641,0.3549072744690521,1.0828477062882507,0.6090776495795568,0.28088972026367,0.37921931704354367,0.2831339711697391,0.5498999642596137,0.7300416363690186,0.36404127737227293,0.17645388544386056,0.2928353604816383,0.36103715693399124,0.1571533627820358,0.495606239971927,0.8152157737947457,0.43239297473114374,0.9872155505792561,0.8398638802067621,0.4982262315904823,0.19440915095098352,0.5600160743686855,0.7635466649227654,0.29339228052076544,0.3401871057865907,0.6256291084273206,0.5929126547860075,0.6084456449018089,0.5209646769032699,0.1856358768065035,0.5027984480711825,0.2959137982478005,0.7110170583346931,0.20235280238968695,0.4502905278920442,0.7719713054580991,0.30964189621321997,0.43976813168291634,0.2051609054682432,0.31302573623036317,0.6451388706039614,0.7276571900103719,0.18095419088590764,0.27723326107312807,0.18366511817592202,0.23032180498188654,1.0916765999703493,0.8863176379177105,0.4684663735383289,0.5296457231587854,0.2197545818294055,0.545467332860303,0.6459908488853263,0.6968306058754713,0.7336986884538732,0.6700181425376901,0.3233427433040745,0.5444818617239499,0.5312837857365437,0.15268698656620067,0.6069432455444184,0.7286250413799185,0.7450633713651471,0.5451049874647294,0.2424406293184477,0.6402072940334015,0.6433458953452664,0.3543456276972736,0.5029445803472644,0.11115421973824899,0.14016923374809961,0.37481147748686366,0.5897607049981578,0.37036343899590307,0.5202459777008258,0.31942814747514464,0.3307916009569496,0.7203228819053048,0.5084220604484655,0.4332158032505543,0.6860262501271999,0.5991267195612453,0.545695320885961,0.708051422716375,0.21294527426836551,0.5372044719099399,0.11790643856938822,0.2439557592769585,0.6046576382842971,0.07372314369279714,0.14211204332877275,0.39873894586792513,0.33602706693526485,0.4784225490742806,0.7125350829044597,0.7593540771158119,0.826430577084388,0.580672497101735,0.24072702291314746,0.3181853175130919,0.5874979794791613,0.35394899982530437,0.4219141876755227,0.33607794909721195,0.6074000786573682,0.3271484375,0.607400078659009,0.3360779490964978,0.42191418767541483,0.35394899982493744,0.5874979794779777,0.31818531751266393,0.24072702291357995,0.5806724971014626,0.8264305770841726,0.7593540771155863,0.7125350829048208,0.4784225490741657,0.3360270669353422,0.398738945867337,0.14211204332836516,0.07372314369154347,0.6046576382843665,0.24395575927842597,0.11790643856900279,0.5372044719095412,0.21294527426811502,0.7080514227161823,0.5456953208863011,0.5991267195611252,0.6860262501263512,0.43321580325082965,0.5084220604483638,0.7203228819048136,0.3307916009567351,0.3194281474745738,0.520245977699663,0.370363438995505,0.5897607049982063,0.3748114774871195,0.14016923374780602,0.11115421973896819,0.5029445803470839,0.3543456276968758,0.6433458953463833,0.6402072940332236,0.24244062932121868,0.5451049874648165,0.7450633713647908,0.7286250413805596,0.6069432455446844,0.15268698656602514,0.5312837857361923,0.5444818617248517,0.32334274330495816,0.6700181425381365,0.7336986884538987,0.6968306058752826,0.6459908488852876,0.5454673328599794,0.21975458182912988,0.5296457231587045,0.46846637353795634,0.8863176379183915,1.0916765999699172,0.23032180498208574,0.18366511817606448,0.27723326107312446,0.18095419088563666,0.7276571900102474,0.6451388706030091,0.31302573623065183,0.20516090546883134,0.4397681316825488,0.3096418962129029,0.7719713054598835,0.4502905278915952,0.20235280238983344,0.7110170583348613,0.2959137982482567,0.5027984480720566,0.18563587680570096,0.5209646769028705,0.6084456449001342,0.5929126547876313,0.6256291084252082,0.34018710578702716,0.29339228052007227,0.763546664922792,0.56001607436953,0.19440915095113387,0.49822623159024415,0.8398638802079352,0.9872155505803335,0.4323929747310758,0.8152157737953688,0.49560623997201914,0.15715336278272424,0.36103715693375166,0.2928353604809529,0.1764538854439113,0.36404127737168934,0.7300416363676216,0.5498999642590525,0.28313397116864375,0.37921931704313994,0.280889720263474,0.609077649578994,1.082847706289382,0.35490727446925374,0.3305371974379731,1.1083769392089482,1.4580137412531464,0.8715160509177619,0.2508812942108335,1.412391725268066,0.726924359687157,2.6957084796880353,2.91506507939175,0.6893892742310507,0.9412795108810941,0.97875724071565,2.016548727057731,2.1179488190390527,8.242487337881357,1
333.818359375,4.257751268551418,5.035160329324006,1.528644960850778,1.4347469132164283,2.0586099491688383,1.6501837488989668,0.7200913036864292,0.491409221609642,0.9251839311077922,0.8441244485939554,0.5185786765023377,0.7691473951553828,0.5635551317609664,0.5707971680529821,0.8422490079333091,0.8775616456147132,0.8856048352056436,0.7743379295149377,1.134864046100152,0.39146361958282144,0.26132024794451186,0.3586317861762199,0.7857722305095215,0.8570030437283636,0.37522197411057184,0.4839285114227027,0.13792629218056085,0.06760565302739284,0.36658469668942933,0.27380454028578166,0.31821118733049814,0.31109462166787166,0.38286349996495705,0.3236405809121313,0.15612932407734958,0.162342438247804,0.4071508614977948,0.36153875710258304,0.4203001423486885,0.17110757292836723,0.4003552540156899,0.35273892043263505,0.3886682434383837,0.31151700060158677,0.20701955869059346,0.29794032744749915,0.33150165502028034,0.342719615081374,0.3732197448138746,0.2598867638486221,0.09231100989958796,0.09766623310482005,0.1511312837990713,0.13505032486977311,0.1366037402917327,0.13427377245624833,0.1543917137992527,0.1492078064403759,0.11112961759829072,0.07627196949103031,0.0804204793661667,0.1664935016144855,0.2146448423824328,0.29625191396081696,0.18900413599130148,0.1470008263016163,0.14294483513428688,0.060158368588894756,0.055402184874483396,0.0703310903243358,0.11473211289941926,0.28462053534733556,0.16352915353322917,0.09167589343228555,0.08760469065403209,0.1245872715348131,0.17236519582377033,0.18638401572506508,0.12891154293109078,0.07042092334979821,0.43711981487328583,0.17826734446113457,0.3565545400025541,0.33275089177255357,0.1459237706596638,0.07410955166810357,0.21205306507845034,0.17742076688473776,0.18718022778471732,0.13386169032526166,0.1581861441415603,0.2624708533955798,0.36165865100516564,0.49648882441206255,0.3238492974019198,0.11456492138705547,0.03362280417977497,0.10770606104436749,0.0833341604126082,0.037976422477673875,0.16910603993446474,0.22997584015968753,0.06398426827477773,0.0068528778377271345,0.06456617872382649,0.1495740749536252,0.11155541154960048,0.19734872325310937,0.04422956207038162,0.16262779229271818,0.18518379298565046,0.2213847113826944,0.29463991189821875,0.35728554681217983,0.450860051130331,0.2928842215363936,0.31514673637030594,0.29985773627322626,0.1617457865491048,0.009765625,0.16174578654797497,0.2998577362729873,0.31514673637037927,0.2928842215362614,0.45086005112940825,0.35728554681217545,0.29463991189790717,0.22138471138221447,0.1851837929854093,0.16262779229264707,0.04422956207072899,0.1973487232527468,0.11155541154944185,0.14957407495430666,0.06456617872408559,0.006852877839388173,0.06398426827449849,0.2299758401601939,0.16910603993447992,0.037976422476875514,0.08333416041283914,0.1077060610461559,0.033622804179514985,0.1145649213865917,0.32384929740236407,0.4964888244120271,0.36165865100506794,0.26247085339589077,0.1581861441427437,0.13386169032611178,0.18718022778531093,0.17742076688448064,0.212053065078451,0.07410955166827189,0.14592377065936063,0.3327508917720781,0.35655454000242703,0.17826734446262332,0.43711981487077534,0.07042092334711837,0.12891154292864287,0.18638401572588736,0.17236519582391818,0.12458727153427561,0.08760469065361688,0.09167589343230989,0.16352915353290343,0.28462053534666715,0.1147321128998325,0.07033109032417438,0.05540218487474082,0.060158368588914185,0.14294483513420309,0.1470008263021708,0.1890041359915204,0.2962519139601396,0.21464484238259504,0.16649350161387708,0.08042047936729321,0.07627196949095509,0.11112961759829702,0.14920780644050674,0.15439171379893588,0.13427377245633687,0.13660374029090677,0.1350503248698723,0.1511312837984702,0.09766623310467361,0.09231100989894607,0.2598867638498695,0.3732197448137044,0.34271961508139304,0.33150165502046763,0.2979403274470599,0.20701955868944116,0.31151700060198123,0.3886682434377561,0.35273892043435395,0.400355254012838,0.17110757293195525,0.42030014234420404,0.3615387571042936,0.40715086149776375,0.16234243824774328,0.15612932407822,0.3236405809117438,0.3828634999634275,0.31109462166684365,0.3182111873301484,0.2738045402864812,0.36658469668874333,0.06760565302810012,0.13792629218027014,0.4839285114232813,0.3752219741107526,0.8570030437277866,0.7857722305101635,0.35863178617547675,0.2613202479452931,0.3914636195833495,1.134864046100119,0.7743379295149376,0.8856048352051967,0.8775616456145192,0.8422490079339066,0.5707971680528166,0.5635551317603887,0.7691473951552827,0.5185786765026206,0.844124448592989,0.9251839311090716,0.4914092216106874,0.7200913036863614,1.6501837488978637,2.058609949168179,1.4347469132167654,1.528644960850448,5.035160329325085,4.257751268544948,1
344.609375,6.903215851617535,6.418894571178781,2.204471572826082,1.6140906658286638,4.761166025699494,1.5519297200501145,1.8487460199091406,0.6784698254014216,1.5875014766667308,1.9011408411466313,1.2894289426093541,0.8228525052320601,1.1972430265311542,0.6302939624317022,0.6924605254608643,1.021037695227301,0.5396243046274135,0.4101361358200693,0.8812031538733229,0.3114713513604517,0.7041183989429824,0.6018851681850167,0.9885880982205584,0.3567978486175034,0.6393544146072669,0.5440077443274669,0.3040570212679098,0.6601506508906756,0.5602848468846923,0.1891867123580219,0.27564783440500706,0.7684552759640599,0.28034705480464883,0.5028904314432007,0.20212621724103041,0.20864153091887436,0.410162326307837,0.32101173992058235,0.44664283965287704,0.29544042006584803,0.13225676177232024,0.12769728709139064,0.537468905983679,0.4067796605195669,0.43250895953972723,0.12064371698355454,0.16511647193899148,0.44996256273617624,0.35841254723070226,0.40901403885529275,0.2808500992920226,0.04765119921337934,0.17268211710373402,0.39592863938213363,0.37718333972465384,0.1582660401576304,0.1963892305026321,0.08741950352612013,0.27345662669538534,0.3349623610572376,0.08420647703195232,0.3229637877703193,0.1990203349695087,0.3623719683878477,0.2194692779399112,0.3371268597169729,0.08688602384456887,0.10279870664961276,0.13262120829389876,0.13554897501642726,0.39522424688053953,0.18926512368412815,0.1112444236014423,0.07502527002862223,0.26730688265278507,0.16768475141500658,0.12150675829730684,0.16490615761534752,0.14719119517814636,0.1405876957897948,0.03212503426960768,0.09340005623031163,0.10411206549667729,0.10084992416649663,0.02581146974944769,0.02455848896657353,0.20963086810633327,0.19826280463012816,0.10903700039630072,0.23994395896401666,0.23814260714459032,0.28002361932279884,0.08607384933023067,0.043073064898088986,0.203186633425589,0.23970320622020896,0.11667012761809101,0.1442884043280568,0.2282091996668678,0.08747201556651847,0.34078858043353516,0.1437829128533728,0.29676455946896224,0.08699455637781779,0.08806115211859371,0.17088713593331034,0.1935077870302931,0.12280245056969512,0.17922041541784908,0.1888798403773563,0.07118685657692392,0.20094364051140223,0.18462295593167807,0.1171700429499579,0.07689176042509628,0.13106658785511038,0.23776917693528418,0.07956491446507614,0.1946677325437228,0.166015625,0.1946677325439447,0.07956491446433131,0.2377691769356838,0.1310665878550319,0.07689176042639499,0.11717004295027866,0.18462295593137054,0.200943640511227,0.071186856577008,0.18887984037761194,0.17922041541784312,0.1228024505696298,0.19350778703007873,0.17088713593320062,0.08806115211900131,0.08699455637610001,0.29676455946914976,0.14378291285339903,0.34078858043318455,0.08747201556656954,0.22820919966679704,0.14428840432672488,0.11667012761768163,0.23970320622058916,0.20318663342494878,0.043073064898396324,0.08607384933031316,0.2800236193225526,0.23814260714444152,0.23994395896389736,0.10903700039567538,0.19826280462949225,0.20963086810622128,0.024558488966372898,0.02581146974967777,0.10084992416660092,0.10411206549656278,0.09340005623215994,0.03212503426885646,0.14058769579017713,0.14719119517915016,0.16490615761638938,0.12150675829742531,0.1676847514146359,0.2673068826522825,0.07502527002853585,0.11124442360188377,0.18926512368578918,0.3952242468797628,0.13554897501660398,0.13262120829361798,0.10279870664966415,0.08688602384463805,0.33712685971649575,0.21946927793964405,0.3623719683887272,0.199020334969878,0.3229637877702659,0.084206477032436,0.3349623610571497,0.2734566266952574,0.08741950352619171,0.19638923050313545,0.15826604015770215,0.37718333972446166,0.3959286393828162,0.17268211710398992,0.047651199213556934,0.28085009929267984,0.40901403885621274,0.35841254723103017,0.4499625627365986,0.16511647193878037,0.12064371698360037,0.43250895953981283,0.4067796605187866,0.5374689059833955,0.12769728709139105,0.13225676177243995,0.2954404200695246,0.4466428396569114,0.32101173991909115,0.41016232630776045,0.20864153092043805,0.20212621723942786,0.5028904314432603,0.28034705480624816,0.7684552759643084,0.27564783440532614,0.18918671235877477,0.5602848468853299,0.6601506508902937,0.3040570212680592,0.544007744326752,0.6393544146077169,0.35679784861638825,0.9885880982191839,0.6018851681856625,0.7041183989403846,0.3114713513599284,0.8812031538732173,0.4101361358207034,0.539624304628321,1.0210376952271585,0.6924605254599313,0.6302939624314646,1.19724302653108,0.8228525052322373,1.2894289426091268,1.9011408411461541,1.5875014766656403,0.6784698254009427,1.8487460199095573,1.5519297200499969,4.761166025698543,1.6140906658300365,2.204471572825197,6.418894571175467,6.90321585161067,1
528.3837890625,25.408203406569022,7.995403964329411,11.971074251481497,7.899340269083534,8.508596502033976,6.915735540076258,4.562200778560344,4.57892520252698,3.3572608093863425,2.755306574880761,2.2293726636818936,2.746124085234473,2.7207764091529296,2.1767571030980353,2.4293342324068696,2.520888437329016,3.0294121849664033,2.6583862236422493,2.648389724533284,1.9601772973915834,2.520946004651765,1.787631080241201,2.042323328762627,2.1490351834979493,1.7814249144129433,1.2797184625592841,1.6835983448344407,1.4558320743864477,1.3941192419392594,0.8228118472705216,1.2842309239502754,1.4001016953882026,1.040683093012265,0.7537515282106758,1.1447752969247567,1.107471221442513,1.035337878868116,1.4554734687560844,1.2645186480520547,0.8857561844255535,1.178327587315845,1.2775793426231974,1.3881803932985224,1.0197789894718714,0.8675290989342179,0.5667678705613439,0.7011021616238001,0.8515843236222859,0.9853574148080512,1.2528259586599428,0.9542298063382786,0.7619660390383807,0.5852108806033471,0.8835489574404122,0.9751644587654335,0.7812639418918835,1.3405059042422918,1.0938381714319039,0.9659949807323029,1.191896431565067,0.7321412467557397,0.872266818120397,1.118179247645405,0.6396593255700578,1.055706504681085,0.8096839208172963,0.953842557503783,1.074004109381677,0.5850713009317084,1.0913711536821555,1.0460310094658645,1.2664218617453986,1.4259739416701278,1.2772739956171295,0.6735830755880705,0.5570505116975208,0.36546303978153805,0.22922647412007238,0.3972329220045639,0.564741120570739,0.5993287838017058,0.5800281124145904,0.3246037429473496,0.6500452888285281,0.7902027546089853,0.7861994477851474,0.9030362942414455,0.7434840780515364,1.1989361531094689,1.3181943519127626,0.6780764610928401,0.9050668097339066,1.0033023221675705,0.5820977439988878,0.8757645228916415,0.7814953384636166,0.7305415973457695,0.835816752015213,0.8282898554735622,1.0646151141168876,0.8711540065959019,0.5903022864924621,0.6990030025800607,0.3326480107572707,0.3991223914421603,0.5966946548342424,0.10824709736318754,0.36155978014445844,0.3723751205814314,0.03156393253878029,0.21530973614085835,0.1294811113962875,0.30190392089393303,0.45684319131748635,0.4079439495096054,0.09471853616434958,0.06143065954743732,0.042153545536536725,0.3448869723882571,0.5419921875,0.34488697238743515,0.04215354553553691,0.06143065954776715,0.09471853616298503,0.4079439495097049,0.456843191318149,0.3019039208933276,0.12948111139547483,0.21530973614046886,0.03156393253862661,0.37237512058078004,0.36155978014495876,0.10824709736300665,0.5966946548352771,0.3991223914425149,0.33264801075999156,0.6990030025800437,0.5903022864903714,0.8711540065964813,1.0646151141183817,0.8282898554730597,0.8358167520130598,0.7305415973455939,0.7814953384643287,0.8757645228906417,0.5820977439986366,1.0033023221677233,0.9050668097339398,0.6780764610910915,1.3181943519140562,1.1989361531110705,0.7434840780524319,0.9030362942413356,0.7861994477853309,0.7902027546089467,0.6500452888286493,0.3246037429475413,0.5800281124153064,0.5993287838011827,0.5647411205725156,0.39723292199987836,0.22922647411964822,0.3654630397819212,0.5570505116965918,0.6735830755879167,1.2772739956173722,1.4259739416694321,1.266421861744168,1.0460310094669159,1.0913711536828687,0.5850713009312885,1.0740041093819273,0.95384255750377,0.8096839208175239,1.0557065046807126,0.6396593255709779,1.1181792476454038,0.8722668181195521,0.7321412467539429,1.1918964315651623,0.9659949807320091,1.0938381714318601,1.340505904243265,0.7812639418920174,0.9751644587660878,0.883548957441495,0.5852108806026253,0.7619660390391284,0.9542298063375839,1.252825958661252,0.9853574148073868,0.8515843236221179,0.7011021616233744,0.5667678705623257,0.867529098936335,1.019778989471473,1.3881803932976091,1.2775793426204922,1.1783275873172265,0.8857561844299799,1.2645186480467507,1.4554734687552404,1.0353378788681273,1.1074712214447846,1.1447752969220433,0.7537515282104736,1.0406830930148663,1.4001016953859657,1.2842309239504663,0.8228118472712483,1.3941192419387254,1.4558320743865611,1.6835983448340868,1.2797184625592768,1.7814249144135939,2.1490351834996124,2.042323328763841,1.7876310802406508,2.520946004655406,1.96017729739115,2.6483897245329264,2.6583862236427582,3.029412184966242,2.520888437329079,2.4293342324054445,2.1767571030980912,2.7207764091535434,2.7461240852346793,2.2293726636828506,2.7553065748784245,3.3572608093861205,4.578925202525453,4.562200778561079,6.915735540078027,8.50859650203518,7.899340269083723,11.97107425148266,7.99540396432407,25.408203406561483,1
528.134765625,35.26270414593198,5.876669364155049,10.214996738646557,4.597216120909333,9.214198806572053,5.985375523759122,2.9006326251284307,2.388161653034289,4.114152107658426,4.001934983861093,3.7744674657787254,6.2648051182721165,3.0772548011686696,3.623839300711096,3.128888612788904,3.0667296892199656,2.1745284003706433,1.9783795790968086,1.947608663706326,1.5349765281287264,2.622061643938489,1.5116538620447544,1.7706580240609693,1.8714492127057973,0.6939628183840493,0.6689208035037986,0.7416461970092932,0.8436777273877345,0.5556442067971293,0.21214517921781384,0.9261844550704601,0.6069392898581503,0.9307767296278676,0.2650814000303046,0.9881072493819397,0.6015102418061163,0.5469373170777757,0.9956230421633628,1.2357950933981,0.5988765052528602,0.7324848436504665,1.4382567497412995,0.7836648515592526,0.3905188472739945,0.40258296845905045,0.08770581507466019,0.22654960539924626,0.27780473056179444,0.527601472576301,0.3169936535860763,0.6133447965886494,0.6321385868988967,0.4956516065526459,1.1890645170363836,0.7407072303545283,0.4338857344718946,0.2421173929238123,0.4888131944328701,0.493897733964585,0.19773883526642494,0.7751670698790405,0.15574194932642677,0.43950657114817376,0.5107337738889353,0.5929362560390548,0.12035531225473643,0.3981727577645127,0.7907673553969962,0.052931460806883456,0.6176263432357721,0.7136789987770582,1.0024042044865846,1.2531972569244731,0.8295468861576404,0.5320331318675795,0.18235713692703515,0.3468407761351706,0.49688423406177895,0.982296966981968,0.8961125020188968,0.5187781767576474,1.1740497268925856,0.9258940320964082,1.167868241806535,0.8422723998367317,0.5232311962664652,0.9177681023843113,0.7395699793804646,0.6305142367126543,0.6963844057431191,0.8794658707656081,0.6134014522277952,0.8139277647726082,0.9761200023811734,0.4422360269960464,0.6644219042120162,0.7909220632498821,0.9372461856777115,0.7673813688367677,0.8026812520370987,1.0360527743055843,0.6188516267441876,0.7458418111947994,1.0340178259233752,0.8025327910425375,0.47190242043201164,0.6329527153285837,0.6837029866621265,0.66817343746436,1.0375901450548624,0.750573137053027,0.7510682793581835,1.0849575498675281,0.9119070463594691,0.5683388439390561,0.7676377060473281,0.9807644955382742,0.6045391079825344,0.599546399174122,1.064453125,0.5995463991729797,0.6045391079824464,0.9807644955387824,0.7676377060485952,0.5683388439399006,0.9119070463587874,1.084957549867393,0.7510682793574338,0.7505731370527545,1.0375901450552436,0.6681734374646522,0.6837029866624174,0.6329527153289524,0.4719024204309675,0.8025327910418005,1.0340178259261716,0.74584181119443,0.6188516267419756,1.0360527743062193,0.8026812520368728,0.7673813688370221,0.9372461856799653,0.7909220632496085,0.6644219042125298,0.4422360269971435,0.9761200023807165,0.813927764772557,0.6134014522284463,0.8794658707662425,0.6963844057416949,0.6305142367108253,0.7395699793809318,0.917768102384081,0.5232311962667313,0.8422723998368036,1.167868241805448,0.9258940320961861,1.1740497268942205,0.5187781767536965,0.8961125020145513,0.9822969669785296,0.49688423406341276,0.34684077613490727,0.1823571369280279,0.5320331318684036,0.8295468861580577,1.2531972569241505,1.0024042044858734,0.7136789987785481,0.6176263432355116,0.05293146080727177,0.7907673553967295,0.3981727577643407,0.12035531225381442,0.59293625603866,0.5107337738901694,0.4395065711488055,0.15574194932544752,0.7751670698801602,0.19773883526619107,0.49389773396469855,0.48881319443269894,0.24211739292460768,0.4338857344718646,0.7407072303535568,1.1890645170356307,0.495651606551992,0.6321385868991632,0.6133447965881097,0.3169936535879937,0.5276014725764349,0.2778047305622547,0.22654960539956295,0.08770581507459076,0.40258296845793545,0.39051884727559183,0.7836648515591249,1.438256749738417,0.7324848436553664,0.5988765052464813,1.23579509340514,0.9956230421611666,0.5469373170776115,0.6015102418084656,0.9881072493807562,0.26508140002989616,0.9307767296252382,0.6069392898565986,0.926184455070887,0.2121451792189165,0.5556442067975695,0.8436777273867958,0.7416461970088146,0.6689208035035236,0.693962818383438,1.8714492127039053,1.7706580240632368,1.5116538620446225,2.6220616439419566,1.5349765281291297,1.9476086637063843,1.9783795790972125,2.1745284003711474,3.0667296892201676,3.128888612788449,3.623839300711396,3.0772548011696985,6.264805118272089,3.774467465777965,4.001934983864423,4.114152107656402,2.3881616530330536,2.9006326251281127,5.985375523760997,9.214198806570565,4.597216120907142,10.214996738645729,5.876669364151308,35.26270414592195,1
411.005859375,1.5071077166204232,2.4735801984131154,2.5401001696547345,1.5189607625639499,4.543792626845944,0.5478553377882159,0.5607017305325516,0.23276711763448496,0.23383978484012402,3.3193131702878254,1.1617753473642543,1.3479524963445513,0.5415001565733774,0.909968129254117,0.3096340376631291,1.0050666459576818,0.7653968234460874,0.3914788314464693,0.3614307326480738,0.5068766650254949,0.7362329618304738,0.44116570093304325,0.10778904661965355,0.3597199749165782,0.1457508616505278,0.28085741233600253,0.11037186860390871,0.576227282598293,0.5496093091377292,0.22474452002043852,0.2644240049594681,0.17351899033602597,0.45159515502118747,0.35550250882309314,0.21119698265269515,0.36517338183598624,0.09447446622210116,0.4995389892695647,0.20970983438208138,0.18612420461426094,0.5456902158271735,0.0631427982881599,0.14500312088255984,0.3393710099031346,0.4246907641105998,0.5213877387061225,0.2607669034047467,0.31058775914561265,0.22927157174059976,0.4071186009499689,0.21164956653721714,0.3124465591735933,0.37563341506773723,0.2843456612582862,0.5261426037366284,0.44720662014057666,0.2619671294066982,0.31996144083340483,0.08132874956326719,0.18073003440727195,0.16193941869034023,0.46649674827505505,0.401361144147577,0.5680626964767684,0.6990301423176548,0.1773985043852942,0.3201973699656086,0.3063279850209271,0.21700665783536532,0.36095823700893453,0.08701988829793428,0.13546044852728278,0.12432727719648282,0.11455960746016933,0.22426867538525658,0.16545251319817308,0.15088083745578948,0.1575780599760944,0.1023469173134657,0.0882965884771198,0.2332536333755655,0.14757929925125396,0.2068523353542309,0.11395787999349469,0.31624765123793896,0.409574546130819,0.20063918177060142,0.15248084753297014,0.08600730253651293,0.26046282534554,0.149857166044061,0.15794469654994037,0.18032907829288575,0.30759075100020006,0.08207996120462979,0.26970522697427746,0.06990953982894596,0.30716732575205,0.23860223935273298,0.10193604534764056,0.2794626933575998,0.24334012190900534,0.07719167682194514,0.036528094277811424,0.19823608807180035,0.09830556622717819,0.13977796227054995,0.1003825164458902,0.22318098272367556,0.04922511480243899,0.23524949164733075,0.1678144671635286,0.142679548342667,0.08672754496400109,0.08177568402590601,0.10619289271356952,0.11185801349241775,0.24526827089945574,0.09419382475171366,0.078125,0.09419382474890824,0.24526827089845188,0.11185801349233038,0.10619289271414412,0.0817756840245764,0.08672754496412118,0.14267954834301635,0.16781446716385107,0.23524949164750608,0.049225114802968865,0.22318098272398293,0.10038251644562393,0.1397779622703498,0.0983055662276455,0.19823608807153983,0.03652809427967875,0.07719167682156537,0.2433401219068781,0.27946269335746116,0.1019360453488308,0.23860223935268568,0.30716732575174,0.06990953982932173,0.26970522697498134,0.08207996120352855,0.3075907510005297,0.18032907829295441,0.15794469654981858,0.14985716604375218,0.26046282534478327,0.08600730253722494,0.1524808475321549,0.20063918177053022,0.4095745461309643,0.31624765123834686,0.113957879994535,0.20685233535403108,0.14757929924918808,0.2332536333724243,0.08829658847581479,0.10234691731549214,0.1575780599768788,0.15088083745545988,0.16545251319751975,0.22426867538560508,0.1145596074604158,0.12432727719628686,0.13546044852700034,0.08701988829788723,0.36095823700874263,0.21700665783507658,0.3063279850211234,0.3201973699656752,0.17739850438585641,0.6990301423175909,0.5680626964757576,0.4013611441471505,0.4664967482740661,0.16193941869029949,0.1807300344070362,0.08132874956310901,0.3199614408334301,0.2619671294071018,0.4472066201407443,0.5261426037363732,0.2843456612583033,0.37563341506837844,0.31244655917418374,0.2116495665363966,0.40711860094942587,0.22927157174011284,0.3105877591450406,0.2607669034049226,0.5213877387068333,0.42469076411245593,0.3393710099023356,0.14500312088296058,0.06314279828671852,0.5456902158233529,0.18612420461681636,0.20970983437629073,0.49953898927166873,0.0944744662220188,0.36517338183406195,0.21119698265176867,0.35550250882338424,0.4515951550217812,0.17351899033774426,0.26442400495918295,0.22474452001952608,0.5496093091382994,0.5762272825974238,0.11037186860391765,0.2808574123368839,0.1457508616509261,0.3597199749173823,0.10778904662103701,0.44116570093293467,0.7362329618277563,0.5068766650256927,0.36143073264814424,0.39147883144560486,0.7653968234470471,1.0050666459574304,0.3096340376635448,0.9099681292539481,0.5415001565734043,1.347952496344789,1.1617753473648538,3.3193131702872614,0.23383978483989404,0.23276711763562485,0.5607017305321192,0.5478553377881787,4.543792626845578,1.5189607625628805,2.5401001696544703,2.4735801984107835,1.507107716613941,1
438.5986328125,2.206172274208648,0.6761029729464518,1.8039814698020558,2.3579288244730923,3.150969579582628,0.13920575951876826,0.42508537501086874,1.3997190226181875,1.4842895578084867,3.4406611350838423,1.2563484186484022,1.051024192317142,0.7068400483840582,0.4583786911530707,1.7080530554072741,0.3445294625587681,0.4224613898501184,0.5616043943897701,0.44468439987233316,1.1284346485607155,0.4381642814762115,0.6496972614388241,1.0862093123002503,0.6692539467186743,1.0112487376571941,0.6869046878632339,0.5366454419757423,0.7200657623848479,1.0882998141772784,0.891676737628918,0.30733318975854135,0.7913037073173734,0.6377797087919781,0.6345662788909813,0.7595922981290653,0.509552350963531,0.7085691862864008,0.41335767088180125,0.19966871245962053,0.829690281634292,0.38279392379095084,0.4849463230093488,0.5204578534457162,0.6290849724197622,0.5868371400839091,0.32107926238939855,0.3204189887970156,0.2522854369270188,0.20800631203506975,0.5139733898876024,0.6822823813156969,0.5108620591228318,0.41492964778468977,0.47029935646887266,0.42941442572742455,0.3448064543616637,0.49354804462366103,0.37046678277441697,0.279792878093308,0.5379299484648739,0.30616509986395596,0.36023970790067955,0.20896043711160944,0.17257312063136251,0.26978632947118497,0.2720451718502303,0.46602808856557904,0.31257535574201656,0.2973621350831343,0.18646694520290488,0.32933512842234286,0.2814159723240386,0.22013596322937568,0.4474167291907149,0.2774576556831196,0.22439649129203895,0.5624445729902356,0.35538400390622615,0.14660887942055562,0.5005061448803596,0.17534709634855858,0.2804698250092743,0.11339011638932366,0.358303254356887,0.19061155461264404,0.07645474171782042,0.2036572335373024,0.3171971732052449,0.25559859023345183,0.1769719595119609,0.2888373224204174,0.37423315782274014,0.11176501153962237,0.20507421090928668,0.12708711367371245,0.08321032224782661,0.14382819099169883,0.20368769629823388,0.2621396356635451,0.10233087839737105,0.17533881977757904,0.31330176973451984,0.1397882330896347,0.25929099273505324,0.20369780248386404,0.054158000516193586,0.1712554393928904,0.17059142240434852,0.4615303922140935,0.2455840502978776,0.30248839328247534,0.24931493974719285,0.17924650873503836,0.09605739174767094,0.29569711679728505,0.04867617436278202,0.26554290441170253,0.5208004353425423,0.4563927031488524,0.4052734375,0.4563927031513667,0.5208004353414518,0.2655429044122813,0.048676174363027166,0.2956971167978491,0.0960573917472094,0.17924650873480782,0.24931493974650523,0.3024883932825595,0.2455840502983499,0.4615303922138693,0.17059142240402578,0.17125543939278653,0.05415800051704054,0.20369780248376385,0.25929099273738043,0.13978823308925548,0.3133017697311955,0.17533881977764748,0.10233087839778998,0.2621396356635297,0.20368769629717076,0.14382819099113375,0.0832103222485916,0.12708711367464365,0.20507421090887767,0.11176501153977424,0.37423315782204086,0.28883732241862276,0.17697195951117117,0.25559859023403364,0.3171971732055092,0.20365723353734483,0.07645474171745406,0.1906115546123329,0.3583032543577001,0.11339011638954549,0.2804698250111889,0.17534709634527268,0.5005061448773974,0.14660887942168854,0.3553840039060924,0.5624445729897197,0.224396491292948,0.277457655682541,0.44741672919049585,0.22013596322884796,0.2814159723250351,0.32933512842332735,0.1864669452035409,0.29736213508346326,0.3125753557417057,0.4660280885657046,0.27204517185067495,0.269786329471084,0.17257312063072922,0.2089604371111414,0.3602397079005146,0.3061650998651723,0.5379299484646516,0.2797928780934203,0.37046678277444867,0.4935480446227505,0.3448064543616687,0.4294144257263503,0.4702993564681092,0.41492964778517166,0.5108620591230799,0.6822823813149187,0.5139733898899503,0.20800631203441852,0.252285436926809,0.32041898879651176,0.3210792623902823,0.5868371400834671,0.6290849724207118,0.5204578534458881,0.48494632300737744,0.3827939237876623,0.8296902816393067,0.1996687124534738,0.4133576708798357,0.7085691862864517,0.5095523509654556,0.7595922981266817,0.6345662788905921,0.6377797087935325,0.7913037073181948,0.3073331897582114,0.8916767376281809,1.0882998141764813,0.7200657623838299,0.5366454419761584,0.6869046878624184,1.0112487376566899,0.669253946717717,1.0862093122982508,0.6496972614390992,0.4381642814731373,1.1284346485603443,0.4446843998725665,0.5616043943903564,0.42246138985040665,0.34452946255908806,1.708053055408088,0.4583786911535561,0.7068400483833968,1.0510241923172987,1.256348418649642,3.4406611350856817,1.484289557808909,1.3997190226167682,0.4250853750111563,0.13920575952001457,3.150969579584093,2.357928824471727,1.8039814698031225,0.6761029729438065,2.2061722742001146,1
395.8984375,34.159292744089825,12.311492597073505,16.215159756574767,16.790093508203423,8.492017936706445,12.534705238830545,9.701979900899063,4.445220561238539,4.446603701181575,2.5812453781097187,5.663281503144576,3.774443224512258,2.88527391097938,6.183522017077238,6.957015294246986,5.44528099939688,4.781194666402511,5.629364122595643,7.593373529242991,5.996995661813704,5.442121714633821,6.560905437432322,5.203088379097502,3.6429399358907815,4.191176913738351,3.634704892845096,1.6971481937235737,1.2331626983528436,1.591622782074747,0.8983004202474146,1.3767036539182436,1.5098629695488484,1.0526247497346894,0.8046334498221077,1.6926151219223933,1.748696404799784,2.0726521634530104,2.1337961863416646,1.742805203076626,1.94931268561234,2.319426588478747,2.337023200430208,2.3958599048530322,1.5409386202473796,0.8112292368097824,1.2237944939921255,0.386714801536693,1.0542021567468074,1.9594233149148375,2.084018836349793,1.6512468150629946,0.7839525497651275,1.021770579944922,1.4715096559362542,0.9240638188371725,0.33357521461692713,1.084250388092989,1.091622716628435,0.9688868534424646,1.229266836103961,1.102657005354493,0.810357241631462,0.8694033957040755,1.0502409695294423,0.8183278382172438,0.7213897956771796,0.6492599618884751,0.6397295672950876,1.0355669852882248,1.0780961379041283,0.9267498045118645,0.7279557681344032,0.4845174074763683,0.5120144973187366,0.2508658744778321,0.8951125322949831,0.810346971659574,1.0236651023096595,1.2281844787236424,1.1403641075766462,0.4294317279460378,0.29459949304957117,0.7166468874812365,0.35149346294853406,0.8042103721108281,1.1937459459834094,1.5290658202183978,1.4335117663420978,1.4176147902809622,1.3539954578777904,1.7492820621531915,1.7376019616865752,1.149136178256379,1.360247868618241,1.7882694176709972,1.4694907587718267,1.286307494975606,0.951963550893013,0.20006404808879574,1.3338063007836387,1.1014554118049005,0.5274911013196567,1.5796535014057522,1.380825523184665,0.9683274094388056,2.0909220886266064,1.8627208559234227,0.32354076353651573,1.120513441435718,0.9824342146520229,0.39418272289688355,1.1734908227216172,0.7921049279661383,0.8940283001536966,1.446123658664362,1.6006092057502441,1.071366729550208,0.9938990243407305,1.5137657914177387,1.89453125,1.5137657914189804,0.9938990243399746,1.0713667295501508,1.600609205749402,1.446123658663417,0.8940283001543292,0.7921049279656973,1.1734908227210692,0.39418272289711787,0.9824342146519617,1.1205134414355076,0.32354076353694206,1.862720855923647,2.0909220886261672,0.9683274094393234,1.380825523183685,1.5796535014053812,0.5274911013168695,1.1014554118044575,1.3338063007827383,0.20006404808904368,0.9519635508949738,1.2863074949756583,1.4694907587712913,1.7882694176718286,1.3602478686179487,1.1491361782563345,1.7376019616861702,1.7492820621540213,1.3539954578780826,1.4176147902798464,1.4335117663426968,1.5290658202183596,1.1937459459836284,0.8042103721110013,0.35149346294882006,0.716646887481192,0.2945994930481116,0.42943172794737255,1.14036410757992,1.2281844787235978,1.0236651023090555,0.8103469716600904,0.8951125322943733,0.2508658744776665,0.5120144973191675,0.48451740747649863,0.7279557681329616,0.9267498045110502,1.0780961379043725,1.0355669852879557,0.6397295672952283,0.6492599618885534,0.7213897956777765,0.8183278382172529,1.0502409695285673,0.8694033957034983,0.8103572416306905,1.1026570053550053,1.2292668361038814,0.9688868534426973,1.0916227166284176,1.0842503880926706,0.33357521461705625,0.9240638188374234,1.4715096559360639,1.0217705799443395,0.7839525497645984,1.6512468150622293,2.0840188363506527,1.9594233149150555,1.0542021567462474,0.3867148015369277,1.223794493991282,0.8112292368084641,1.54093862024705,2.3958599048536287,2.3370232004321347,2.3194265884773153,1.9493126856120366,1.742805203081536,2.1337961863410824,2.072652163453044,1.7486964047987608,1.6926151219242862,0.8046334498222482,1.0526247497326766,1.5098629695489156,1.37670365391849,0.8983004202477398,1.5916227820755953,1.2331626983534425,1.6971481937237398,3.634704892845729,4.191176913738088,3.6429399358896513,5.203088379097839,6.560905437433176,5.442121714632941,5.996995661813046,7.593373529242828,5.629364122595027,4.781194666403851,5.44528099939715,6.9570152942467205,6.183522017077052,2.8852739109799157,3.7744432245122628,5.663281503145565,2.5812453781108085,4.4466037011805835,4.445220561237737,9.701979900898333,12.534705238830867,8.49201793670768,16.790093508204226,16.215159756575744,12.311492597069446,34.159292744086585,1
434.7802734375,44.12834573874233,4.718128121078507,32.150410206348674,23.533761283910238,7.501299419189236,22.833423942334026,16.408462677631857,5.632290147756591,15.728328082216011,9.982319377073079,7.893159420189356,15.88545314098792,11.23831150224353,7.719020888821108,12.288911930370467,7.441057883169328,6.402157087924676,11.875405658508864,9.227035859422266,3.3339361185020944,5.819956968473899,5.68678856073908,2.5208127723057534,3.8669222139486257,4.871120987245021,4.470074860526092,4.590324951501047,4.823945544472553,2.8270228691041708,1.7277763933110188,3.540808555436642,2.49217482993027,1.3179137359142599,2.758956667506953,2.1164871730592196,2.233852169327607,3.058417635198021,1.9033299833895647,0.9841290479200706,1.610447498468233,1.3914971551292488,2.234747339356831,1.8167770074354244,1.0249626077613745,3.0294704491996765,3.2070797371033835,1.9523676850078908,1.9833422775368357,2.016851160922465,1.6928565034874732,1.4150782100188684,1.717456031911062,2.386319214170709,2.363612021853198,1.3465746835137564,0.6017429552514008,1.1017627711074158,0.6829019091089418,1.0915883837338465,0.6498544676793867,0.4791232291367632,0.8876468450192907,0.6252971772306462,1.2855480441013487,2.023934509413112,2.1671644794597222,2.0867400339652074,1.6295203032788999,0.7875203317027215,0.659430195972635,0.5860655334633841,0.12487564502243324,0.4042903778344672,0.4034445284702816,0.3026426579905537,0.8059707689347795,1.4296549096114377,1.347256461180076,1.3422063681708132,0.6780080105465545,1.5306866246257753,1.4498794594061855,0.5264606503334596,0.7410411746966278,0.9797504770401538,0.7954868881456566,1.0508116181669989,0.9680868695830432,1.4421170002328603,1.834542020845179,1.4938960965071495,0.5788476297651676,1.2631632116646134,1.1689933027558521,0.8748894458342866,1.303710057271675,1.0288470479913088,1.0597952820660803,1.5060200550188485,1.1669784586717462,1.169293128725003,1.0637546834472789,0.6547323255014798,0.7935405691892238,0.8906421065889475,0.2068126138359123,0.7778092171048855,0.6805028504572236,0.30958711056593347,1.2554507345687882,1.1960637127971023,0.32143078109360446,1.632997945998829,2.067322195409223,1.021071791389092,0.9912900759803118,1.7074164887658265,0.815269085559609,1.2601143110046467,2.2900390625,1.2601143110056554,0.8152690855601973,1.7074164887658285,0.9912900759803405,1.021071791388333,2.067322195409201,1.6329979459986148,0.32143078109318185,1.1960637127972074,1.2554507345686647,0.3095871105659395,0.6805028504574269,0.7778092171052173,0.2068126138365404,0.8906421065882981,0.7935405691914109,0.6547323255017499,1.0637546834491651,1.1692931287251127,1.166978458672641,1.5060200550191947,1.0597952820656051,1.028847047991534,1.3037100572710443,0.8748894458354071,1.1689933027561668,1.2631632116644758,0.5788476297647204,1.4938960965068824,1.8345420208441,1.4421170002313821,0.9680868695829824,1.0508116181669749,0.7954868881455903,0.9797504770399739,0.7410411746976545,0.5264606503334208,1.4498794594080142,1.5306866246281892,0.6780080105474932,1.3422063681725263,1.3472564611813722,1.429654909611467,0.8059707689346093,0.30264265798963136,0.40344452847024437,0.4042903778343131,0.12487564502487547,0.586065533462592,0.6594301959731956,0.7875203317030848,1.6295203032793335,2.086740033965366,2.167164479459331,2.0239345094132344,1.2855480441025564,0.6252971772299915,0.8876468450193068,0.4791232291355379,0.6498544676795652,1.0915883837336986,0.6829019091090633,1.1017627711079139,0.6017429552514965,1.3465746835138015,2.363612021853697,2.386319214171378,1.7174560319105652,1.4150782100194874,1.6928565034857916,2.0168511609232067,1.983342277536952,1.9523676850083722,3.207079737103599,3.0294704491996702,1.0249626077608438,1.816777007436137,2.234747339358549,1.39149715512584,1.6104474984719623,0.9841290479191267,1.9033299833883568,3.0584176351981514,2.233852169328664,2.116487173059445,2.7589566675070176,1.317913735916366,2.492174829928237,3.540808555437124,1.7277763933112464,2.8270228691036863,4.823945544472055,4.590324951501033,4.47007486052529,4.871120987245204,3.866922213948977,2.520812772304821,5.686788560738096,5.819956968473606,3.3339361185028724,9.227035859422381,11.875405658509258,6.40215708792424,7.441057883168841,12.288911930371357,7.719020888820923,11.23831150224297,15.885453140987899,7.893159420190076,9.982319377075406,15.728328082214581,5.632290147755834,16.408462677630332,22.833423942334484,7.501299419190784,23.533761283911318,32.15041020634993,4.718128121082501,44.12834573873551,1
404.3505859375,50.305654335803005,18.842951183078085,37.252725072254904,10.766078749341379,16.864321328771663,17.606513972384885,8.521232467057308,19.258340150514528,6.551903668290821,17.59933743070991,20.335194146581088,11.462830073475514,10.116241636869969,12.736993810355305,4.74091175569415,7.223542877489798,8.518548106168568,5.390227213868155,9.677667170647748,1.1404327804418275,6.233838667748301,11.625276915183138,7.578085717763228,2.9468561568197407,3.5825161763697984,4.616145273931327,5.286542271859566,7.9050118616117855,3.811826233927291,5.159237940660036,5.723078612443811,2.5576634415820956,6.763429394786996,5.865257820286529,3.7256520388498053,2.1989317577776255,3.2251085059230356,4.8955748049113526,3.6931893381586005,2.3411087412252995,5.421542277035244,7.24178394663914,2.444781898314519,2.6815135328164548,3.8602199296513713,2.642697799566954,2.0507958151118832,1.993916986386584,1.172839983700337,1.4793942890207779,3.549340296717295,5.1239845788159135,4.860386168589363,2.775243375477617,4.357132643854865,5.12067636063819,1.5176518644539643,2.4096760838620876,2.741797683021817,2.174694180090115,2.364805254181531,0.82793897235158,2.2711692643251244,2.6168579065994213,2.584232712274356,1.6066315784103666,2.1806088987174195,1.8217112545150311,2.0740253809389984,0.39224407939624606,1.2631421250658006,2.3920811607849553,1.4341985267315436,1.680254575689325,0.997745465759895,1.1473831458826431,2.3517160179011785,0.7601622998956359,2.138294716931277,1.5144513492006653,2.046183148221664,2.6761508071519517,0.7874635250668461,1.5695275657595285,0.43961687793766296,0.5782280005669398,1.786815622609155,1.6261374944891578,1.1861696289509254,0.45567992820686387,0.8703481124217667,1.7321922184139698,0.5395587577734854,1.8900340288701845,1.4413449414850872,0.9397206811738162,0.8072412237461879,1.0285018369355294,2.3240256051464288,1.0595301524031069,0.27911219276046584,1.3062773538233166,0.6039809059034092,1.7827782711419622,2.361434967252288,1.7684330061726863,1.3341990829316956,1.8959279886912013,2.7414182783990695,2.6588342589611913,1.3930813987647102,0.9933989243308096,1.5531012866492604,1.5911284746839305,1.6644818547108016,1.2444682534747304,2.2960957297567326,1.8890876584862066,0.7443485142701995,0.6884765625,0.7443485142683048,1.8890876584868368,2.2960957297568254,1.2444682534747757,1.6644818547117977,1.5911284746837218,1.5531012866490315,0.993398924331132,1.3930813987645563,2.6588342589606873,2.741418278399555,1.8959279886912193,1.3341990829319046,1.7684330061718174,2.361434967252191,1.7827782711435933,0.6039809059035474,1.306277353822486,0.27911219276104976,1.059530152402677,2.324025605146368,1.02850183693414,0.8072412237466505,0.9397206811730031,1.4413449414862913,1.8900340288702089,0.5395587577736315,1.7321922184138001,0.8703481124212277,0.45567992820790937,1.186169628951059,1.626137494489724,1.7868156226090393,0.5782280005670928,0.4396168779371709,1.5695275657596166,0.7874635250668724,2.6761508071530464,2.046183148224184,1.5144513492040421,2.1382947169285296,0.7601622998944323,2.351716017900376,1.1473831458829644,0.997745465758553,1.68025457568885,1.4341985267324018,2.3920811607868764,1.2631421250645933,0.39224407939648276,2.0740253809390006,1.8217112545151177,2.180608898717518,1.6066315784095515,2.584232712274077,2.616857906598942,2.2711692643243624,0.8279389723514123,2.364805254182061,2.174694180090045,2.7417976830218573,2.4096760838617195,1.5176518644532033,5.120676360638313,4.357132643855346,2.7752433754771118,4.860386168588514,5.123984578815956,3.54934029671737,1.4793942890233083,1.1728399837007675,1.9939169863869912,2.050795815112026,2.6426977995679315,3.860219929653102,2.681513532816436,2.4447818983132845,7.241783946638949,5.42154227703364,2.3411087412294407,3.6931893381633056,4.895574804909134,3.22510850592299,2.198931757775907,3.725652038847461,5.865257820286592,6.763429394788062,2.557663441584082,5.7230786124441115,5.159237940660226,3.811826233927589,7.9050118616121114,5.286542271859618,4.616145273932097,3.5825161763700835,2.946856156818722,7.578085717764645,11.625276915182258,6.233838667745803,1.140432780441677,9.677667170648132,5.390227213867283,8.518548106167325,7.223542877489537,4.7409117556932445,12.736993810355452,10.116241636869399,11.462830073475011,20.335194146580893,17.599337430709852,6.551903668289281,19.258340150513636,8.521232467057793,17.606513972383485,16.86432132877269,10.766078749342162,37.25272507225594,18.842951183078082,50.305654335796085,1
407.01171875,50.8092112152316,40.12400147282334,15.600813685502365,15.758383911220031,20.58280753573958,23.79759027569598,15.287777536229115,10.914182329603445,3.823603079459069,7.239559844208195,8.023879884668377,9.433519919922771,3.8200629921958402,5.903161428269756,7.1778493572013655,9.806418256731227,8.135786543202867,4.402749218082723,0.8911204589690096,5.094981615169473,7.1215073914829174,6.438992720310136,5.215971992446192,3.850381496720089,4.92446968990001,6.70801739179891,6.8665599178992816,5.594535399210942,4.66836998770733,2.75876102724451,0.6681115731689111,2.6746023427394006,4.261102240494396,2.148779412397101,1.288609436755471,3.99317338217113,4.59124400700476,2.5630369079007047,1.7599374253830575,1.4705293306999265,0.9058877841363676,1.5532877373738931,1.4045053087221695,2.4042234580383255,1.704965006298096,1.2276742381088108,0.6353223323152908,0.9177089633870597,1.483300594919529,2.0689826615909643,1.9783413700865857,1.4211066937020658,1.8345827976296334,1.7179054903736708,2.8327880399799588,3.5054952578495664,3.6845431121959695,3.3011335505784927,1.0265091031992957,1.0133924154158636,3.2559512808719497,4.122850449598455,3.266010350615219,2.922302282135159,1.876016235745755,0.6552974931094272,0.3496722656205024,1.6013907983383087,1.3209195558951883,0.7145080546467643,0.9818701341243776,2.7696699950925,3.139922030296466,3.095740348257097,2.177195862757073,1.24762363174629,1.566514308454262,2.3850724804841517,2.6860412514874406,2.0283605124368265,1.4974414921093506,0.8515125792047373,1.351762217326879,0.962616660104716,1.0386045842869733,0.4126608582878591,1.0105870938306842,0.9631202042136365,1.4003988984562905,0.7739140438960913,0.7559152852878465,0.27199165698719513,0.3282599150533899,0.3482377909282352,1.070909733251321,0.7028197916393979,0.2948740875046287,0.7310501175764591,1.0834967533986704,1.159392275191919,1.331769157712059,2.186481332181258,2.676259558023484,2.230397684510378,1.5705410652697775,0.4823359765854084,0.7703616627018198,1.4240306319917193,1.2858367148567937,0.6117340840262081,0.22437694988463233,1.8603235648253875,3.67373957551136,3.979658359416965,3.3839551517410733,2.5694229959925656,2.774296767759912,3.611853233741903,4.939804305773786,5.341796875,4.939804305774583,3.6118532337415097,2.774296767759612,2.569422995991673,3.3839551517403232,3.97965835941759,3.6737395755111337,1.860323564825372,0.22437694988429951,0.6117340840253025,1.2858367148569754,1.4240306319911815,0.7703616627015538,0.4823359765857488,1.5705410652702672,2.230397684509239,2.6762595580235007,2.1864813321806165,1.3317691577125483,1.1593922751919898,1.083496753398985,0.7310501175752291,0.2948740875045557,0.702819791640069,1.070909733250208,0.34823779092851365,0.3282599150534311,0.2719916569874403,0.7559152852895068,0.773914043897002,1.4003988984574762,0.9631202042127737,1.0105870938302837,0.41266085828759247,1.038604584287271,0.9626166601056779,1.3517622173267376,0.8515125792021747,1.4974414921078616,2.0283605124332826,2.6860412514834073,2.385072480483913,1.5665143084546145,1.247623631746804,2.177195862757383,3.095740348257232,3.139922030295798,2.769669995094801,0.9818701341231939,0.714508054647284,1.3209195558954308,1.6013907983382554,0.34967226562054027,0.6552974931088615,1.8760162357456411,2.9223022821358486,3.2660103506158435,4.122850449598636,3.255951280872944,1.0133924154161795,1.0265091031993425,3.301133550578282,3.684543112196647,3.505495257849431,2.8327880399802288,1.7179054903742665,1.834582797630173,1.421106693701633,1.9783413700858818,2.068982661593287,1.4833005949192415,0.917708963386354,0.6353223323147836,1.2276742381082826,1.7049650062963861,2.4042234580394175,1.4045053087215944,1.5532877373733232,0.9058877841350106,1.4705293307043914,1.759937425380451,2.5630369079005875,4.591244007004548,3.993173382169549,1.2886094367571368,2.1487794123976425,4.261102240496053,2.6746023427396435,0.6681115731687196,2.7587610272440752,4.668369987706594,5.594535399210822,6.86655991789916,6.708017391799432,4.92446968990058,3.850381496721317,5.215971992445192,6.4389927203098765,7.121507391479938,5.094981615168887,0.8911204589692638,4.402749218081682,8.135786543204025,9.806418256731122,7.177849357201296,5.903161428269549,3.8200629921963833,9.433519919922572,8.023879884668174,7.239559844208624,3.823603079457335,10.91418232960224,15.287777536229365,23.797590275697065,20.582807535738244,15.758383911219926,15.60081368550143,40.12400147282363,50.80921121522465,1
232.7587890625,8.569825823985848,1.0166441081422524,2.862398475956512,1.2460643588059106,4.167560528768939,3.031056232210114,1.5887869528838603,2.5862182495915267,0.44158962913280175,1.605760578791452,2.853940778256014,1.089844986281398,1.3835924049155186,0.0778175903672137,1.8398055668325917,2.1409572204934895,1.4429293876247975,1.0633739376480866,0.8324403993542493,1.7983529909964637,2.525223678883594,1.3614660791546482,2.225005443515541,2.0481497177148738,1.502205804354911,1.938498838907869,1.5262789684050402,1.2805890971395861,0.8681931044673227,0.6839347068949027,0.7595611628267612,0.46220109666185555,0.7363471759432024,1.1505871542932526,1.9952234302118765,1.823470095327179,0.6109346822436633,0.8809580570446086,0.8327498267079642,0.9031619371303872,0.9899258207037958,0.8038821055504034,0.9700498828698857,1.4261455627665482,1.3474071050062086,0.7446688673602447,0.8587166283853341,1.1154203486306953,0.8978925590922786,1.545889470463185,1.1686744893937822,0.6992671324060692,0.5002394415237958,0.7680047580906033,0.8021650834907967,0.9682818995027356,0.6645981628343973,0.07682934736164707,0.6814790522787687,1.1235668802902057,0.3387639258924809,0.7042757299899435,0.4556741434269774,0.1087195573588158,0.4281749085170246,0.6948740401795805,0.8046835375875631,0.7664761702007538,0.7494578940352856,0.3354399453371485,0.6428615087533336,0.3009736991853511,0.33151215265342465,0.7632546046366827,1.0754716647002283,0.6419960267547122,0.658133751947078,0.5224961768361167,0.4450056547067982,0.5036402747056075,0.3047659402372107,0.3056218956610165,0.4237485861609508,0.4821356743470224,0.6638456315680735,0.08673422288821032,0.17629845219313584,0.4506688195521591,1.1114309603116304,0.6329308536549783,0.2535913102422649,0.11725363929066815,0.14013757694925594,0.8730060228949004,0.6134907854399071,0.5813016525052195,0.6930075315176687,0.7646248618447085,0.48942437184223314,0.39539104950602694,0.4100893321090898,0.3789015961402726,0.48309187816550064,0.4035837180032501,0.3156445665984486,0.21486969871407935,0.2726709251570078,0.6211998075010517,0.5049789865973892,0.1557477688602676,0.2737118106272031,0.29723974933017794,0.8941166459430205,0.6460936006779106,0.22712926487597124,0.3975175015700369,0.3550778646611098,0.39113989338753385,0.21464789869418996,0.1416015625,0.21464789869455392,0.39113989338810046,0.35507786466122976,0.39751750156996773,0.2271292648758,0.6460936006782679,0.8941166459427916,0.29723974932981395,0.27371181062723293,0.1557477688606506,0.5049789865976153,0.6211998075008438,0.2726709251568194,0.21486969871449924,0.31564456659836293,0.4035837180043078,0.4830918781652294,0.3789015961418538,0.4100893321088815,0.39539104950666054,0.4894243718421477,0.76462486184513,0.6930075315178049,0.5813016525047388,0.6134907854406049,0.8730060228948677,0.1401375769492512,0.11725363929041839,0.25359131024131587,0.6329308536548659,1.111430960311532,0.4506688195519572,0.17629845219309273,0.08673422288839187,0.6638456315678005,0.4821356743474634,0.42374858616092426,0.305621895660534,0.304765940235776,0.5036402747074351,0.4450056547074667,0.5224961768361202,0.6581337519474996,0.6419960267541547,1.075471664699808,0.7632546046366255,0.331512152653576,0.30097369918581324,0.6428615087527394,0.33543994533707044,0.7494578940353114,0.7664761702008596,0.8046835375875466,0.694874040179729,0.42817490851712037,0.10871955735835571,0.45567414342681956,0.7042757299903308,0.3387639258929833,1.1235668802903225,0.6814790522788426,0.07682934736160626,0.6645981628347533,0.9682818995026218,0.8021650834904717,0.7680047580904483,0.50023944152345,0.699267132405667,1.1686744893932965,1.5458894704620187,0.8978925590924909,1.1154203486300298,0.8587166283850384,0.7446688673601581,1.347407105007238,1.4261455627661963,0.9700498828700569,0.8038821055514178,0.9899258207020024,0.903161937127674,0.8327498267072371,0.8809580570455767,0.6109346822436115,1.8234700953260112,1.9952234302116716,1.150587154293027,0.7363471759444115,0.4622010966627108,0.7595611628269512,0.6839347068944179,0.8681931044668035,1.280589097139591,1.5262789684048639,1.9384988389081939,1.5022058043552238,2.048149717714379,2.2250054435151534,1.361466079154883,2.525223678883307,1.7983529909961566,0.8324403993543713,1.0633739376478402,1.4429293876241425,2.140957220493541,1.8398055668320445,0.07781759036707638,1.3835924049153436,1.0898449862814485,2.8539407782553714,1.605760578792258,0.4415896291321738,2.5862182495908197,1.5887869528832863,3.031056232211045,4.167560528768219,1.246064358806266,2.8623984759565624,1.0166441081426545,8.569825823982248,1
220.29296875,8.16231168762151,3.3804858329028513,4.648378409392388,5.338589244298961,1.3733140351071376,1.1993370000460537,0.9160778413115195,1.761668079524384,3.068361203873396,1.2957954047133915,0.8706244148423564,0.794788148685404,2.312991486824353,1.9497041827605184,1.451778979502399,0.6651263687915541,1.009553582229324,1.4727249393752169,1.3409094354305864,0.3944569144765415,0.855964800138752,0.718456330060655,0.30053431452873447,1.9563738345700914,2.0699938948917205,0.6923705023466156,0.8500314356298364,1.1250499395032292,1.4521090957740033,1.1151530533971263,0.6128758338653114,1.164720747975594,0.6126023816168542,1.0769786193667361,0.7719046117419291,0.7063532055757044,0.22275080996570606,1.141982576328596,1.3005596120816614,0.8035750616080625,0.6316556516746235,1.2185190535974586,1.5917771065256743,0.9018473634720788,0.4531135792968365,0.7620650196291023,0.6655376859435713,1.3911761935952334,0.5993877619663188,0.08152261233838165,0.36745409983251215,0.6439255513587084,0.6146610661830082,0.34085473952386675,0.4825031140354207,0.16080671420419906,0.881936960485969,0.7762640867362516,0.3982335623419476,0.7868754983648054,0.5875320755855363,0.27381204294149125,0.6226497254666167,1.0667326290513068,0.5539789076333957,0.40345044528456114,0.7873743279272944,0.2626630455993629,0.48116503187130166,0.5466003863182729,0.5957172695576101,0.3025873917990571,0.8848597629771283,0.5140404994201784,0.12562131285077083,0.6523700183873721,1.0317270640925085,0.4445551918890704,1.2124628369536488,0.9068370101826555,0.34819805991429376,0.7355820774297701,0.5704623125296948,0.984924259681014,0.35741511606934584,0.7288171898778756,0.5042239404117232,0.4821815002891171,0.7955585252926987,0.5270961055268829,0.43499894663032485,0.777543620638898,0.5015468006773354,0.4319175969501233,0.40924410405823736,0.8118055497364582,0.26615562325163716,0.43527871164855103,0.42911600543532435,0.5030439217425566,0.67051972397264,0.14755541589147847,0.34461569552478605,0.24947954756948942,0.2708505729243659,0.23021962807739307,0.3550854579928401,0.4143291297887437,0.7085224708579405,0.5800461484361731,0.5824195035612666,0.6064538169570881,0.6439508914034681,0.34062912634067327,0.3409756988628347,0.3468342974732842,0.5637189643993008,0.5085508285051273,0.10077879999927257,0.380859375,0.10077879999900605,0.5085508285054268,0.5637189643991098,0.3468342974727301,0.34097569886205165,0.3406291263409554,0.6439508914035762,0.6064538169568892,0.5824195035611209,0.58004614843589,0.7085224708582306,0.4143291297885808,0.35508545799268465,0.2302196280778483,0.270850572924558,0.24947954757008325,0.34461569552461235,0.14755541589019897,0.6705197239725694,0.5030439217421636,0.42911600543515205,0.4352787116487573,0.2661556232514742,0.8118055497368459,0.4092441040584771,0.43191759695031623,0.5015468006772598,0.7775436206390437,0.4349989466312549,0.5270961055275178,0.7955585252933315,0.4821815002891803,0.5042239404117094,0.728817189878001,0.3574151160693814,0.9849242596805686,0.5704623125296179,0.7355820774300401,0.3481980599126362,0.906837010182806,1.212462836951745,0.44455519188942055,1.031727064092706,0.65237001838741,0.12562131285059241,0.5140404994200933,0.8848597629773696,0.3025873917979324,0.595717269558091,0.546600386318356,0.48116503187133813,0.2626630455994653,0.7873743279272593,0.40345044528465274,0.5539789076334086,1.066732629050698,0.6226497254662283,0.2738120429410252,0.5875320755850099,0.7868754983647335,0.39823356234204527,0.7762640867361694,0.8819369604861543,0.16080671420432688,0.4825031140356549,0.34085473952409984,0.6146610661834265,0.6439255513583826,0.3674540998330142,0.08152261233957198,0.599387761965988,1.3911761935956062,0.665537685943288,0.7620650196291128,0.4531135792971094,0.9018473634720631,1.5917771065258581,1.2185190535985928,0.6316556516742685,0.8035750616090794,1.300559612079215,1.1419825763283808,0.22275080996566246,0.7063532055751282,0.7719046117431542,1.076978619366729,0.6126023816157816,1.1647207479765804,0.6128758338651228,1.1151530533974405,1.4521090957736356,1.1250499395032851,0.8500314356296571,0.6923705023461707,2.0699938948914314,1.9563738345693888,0.30053431452828466,0.7184563300604925,0.8559648001388805,0.3944569144760684,1.3409094354304076,1.4727249393752064,1.0095535822293678,0.6651263687914002,1.4517789795029175,1.9497041827605555,2.312991486824053,0.7947881486853906,0.8706244148425692,1.2957954047126417,3.0683612038737285,1.7616680795239645,0.9160778413120335,1.199337000045199,1.3733140351066428,5.338589244299171,4.648378409392814,3.3804858329050127,8.162311687617457,1
109.8291015625,21.549580079664636,18.967525198907552,5.898690973379283,8.17184047065381,6.102057752681899,7.835632538523005,5.325340558527629,4.288395245123892,5.510057117519599,5.647170400643756,4.506329395614255,3.9528125363468862,1.8870529621493126,4.859337078261639,2.3742889499722613,3.362862282467145,2.8232955400582513,1.0142978101607498,2.081199632808221,1.772156292085736,1.893935485180321,1.46485484969608,2.1242564437236187,0.15628970028686548,1.9043689884698234,1.536374622022078,2.7145807400218587,1.3364518266615093,1.8007480169445955,1.095476445668312,0.4056597533291657,1.6832809658637038,1.1976047824531348,0.9272469253922366,1.2178713436167619,1.3281811090978763,0.82815959016107,0.8092162048751118,0.42905958786200216,1.5739706520729928,0.5383633045790227,0.8626926114661086,0.7522095858826238,1.4076779641179922,0.698974533880476,1.4085565331605454,0.17775836174625625,0.9305271584993992,0.8427605332320741,0.994794172206708,1.2907876509616574,1.1529678653028737,0.5337045245649855,0.9402004362689271,1.2457239084073983,0.795064112335763,0.12837161534166638,0.30340016872834424,0.3543705842169784,0.7298947287125781,0.30454134951658735,0.34961412416825943,0.5997743976002454,0.6914120917412547,0.7379298884421668,0.9090588734247691,0.6270842399017863,0.3327886833848185,1.3138500486063718,0.57903242003903,0.7098594986538923,0.7567962372131153,0.26765650304407224,0.4692337534148458,0.7804277563188725,0.09272097906801485,0.2683691680884538,0.9241980165208432,0.19463611679932588,0.9074283699788617,0.7327667839349857,0.6361837438903599,0.569648485285611,0.224699273831656,0.6669910891962919,0.8444393886233568,0.657524326745054,0.4109852583685204,0.5232429441437028,0.192575605786124,0.13243067807317901,0.19903399201210847,0.6061703658237864,0.6317050593986613,0.7636534899907365,0.19925987126483802,0.4739628975916933,0.5003811561317655,0.20434232967912586,0.16240708921452984,0.4568466635713378,0.4484046099331825,0.465267124477544,0.8345413250296106,0.40343441655937257,0.8245544325444618,0.5648350578684354,0.31164078508995746,0.879617529726867,0.768449746555184,0.5960867141029814,0.6932388173880546,0.7527895270349357,1.1268006235133894,0.6860500617343691,0.3950539901459593,0.5625251312589681,0.9479930650849114,0.5261592902175657,1.2255859375,0.526159290216899,0.9479930650853526,0.5625251312590865,0.3950539901463304,0.6860500617344495,1.1268006235132015,0.7527895270349778,0.69323881738814,0.5960867141029252,0.7684497465551616,0.8796175297267403,0.3116407850899223,0.5648350578684507,0.8245544325442986,0.4034344165594551,0.8345413250299558,0.4652671244774647,0.4484046099323899,0.45684666357148074,0.16240708921409353,0.20434232967922072,0.5003811561322691,0.4739628975917198,0.19925987126479439,0.7636534899905377,0.6317050593984945,0.6061703658238004,0.19903399201202576,0.1324306780730816,0.19257560578619332,0.523242944143806,0.41098525836860555,0.6575243267449774,0.8444393886236615,0.6669910891961907,0.2246992738315594,0.5696484852854622,0.63618374388995,0.7327667839357839,0.9074283699798094,0.1946361167988253,0.9241980165213685,0.2683691680884025,0.09272097906783075,0.7804277563189722,0.46923375341489987,0.26765650304399075,0.7567962372131575,0.7098594986538044,0.5790324200389124,1.3138500486064413,0.332788683384795,0.627084239901796,0.9090588734247574,0.7379298884422113,0.6914120917410703,0.5997743976001335,0.34961412416824206,0.3045413495164603,0.7298947287126246,0.35437058421700174,0.3034001687284053,0.12837161534156427,0.7950641123357836,1.2457239084076142,0.9402004362685411,0.533704524565041,1.1529678653028692,1.2907876509617893,0.9947941722065784,0.8427605332320459,0.930527158499468,0.17775836174631438,1.4085565331603658,0.6989745338801883,1.4076779641175916,0.7522095858827252,0.8626926114657875,0.5383633045780969,1.5739706520720222,0.42905958786121395,0.809216204875339,0.8281595901614154,1.3281811090976299,1.217871343615903,0.9272469253921357,1.197604782452682,1.6832809658642316,0.4056597533291991,1.0954764456684394,1.8007480169446382,1.336451826661358,2.714580740022098,1.5363746220220347,1.9043689884696828,0.15628970028672448,2.1242564437233415,1.4648548496957998,1.8939354851803,1.7721562920858296,2.0811996328082754,1.0142978101608877,2.823295540058575,3.3628622824671774,2.3742889499722364,4.85933707826191,1.8870529621492607,3.9528125363468174,4.506329395614724,5.64717040064452,5.510057117519736,4.288395245123858,5.325340558528011,7.835632538522732,6.102057752681128,8.171840470654464,5.898690973379302,18.967525198906017,21.549580079666868,2
134.287109375,24.652257208641227,23.26698628683105,7.259507365396101,15.18553428758997,4.293746497537925,8.57064855326096,9.334491152955875,7.907313913555372,7.193048895213773,0.2909975081432868,6.026018535951511,4.593695277680875,6.978454885907145,4.966636014220548,4.300026465985276,6.043619621334417,3.259190264102105,3.3179671320194535,1.6157934883494987,3.2657103113373847,2.2793167659515317,2.2698630574853826,1.6344344034479081,1.7558978484533319,1.3875662156285307,2.398889168352823,0.8894298164451006,2.04499434366689,1.4905781307747945,3.3262877638692476,0.9400687256427953,2.3083668207153494,1.471050373014527,1.2240417575643716,2.1075544579260606,0.8179466636987484,0.8351812942492224,1.7779718679773249,0.8656480296156736,1.4166468824612999,1.3580607808398935,0.7919608697259396,1.9649724715422683,1.0375455771534894,1.199199582896046,1.4199389936570128,0.8283258710960829,1.9817859013152936,0.971019038741908,0.6496623025055422,1.0436420562277964,1.0941172291889016,1.0248137725881779,1.2988277613997765,1.9503355924626442,1.1261622924939563,0.516776311197956,0.5746778750034657,0.9311522790980558,0.3800447016071894,0.26097023108869144,1.2319928197599073,1.0651403787864686,0.17272166377244952,1.6700280199525344,0.5224165501422972,0.7449568614637676,0.5188538027318879,1.5113230196479734,1.0471971593471263,1.098291401360214,1.2056708521835753,1.4147964434617417,1.1053955180757227,0.7790788360444107,0.9855847669209921,0.34451942289154863,0.9452440297271353,0.9348391951882851,0.8182317593293359,0.24127197530097252,0.3406221857662483,0.4493470414000521,1.205477384022288,0.7693168014848785,1.3741677859730483,0.49258007736000187,0.8112450709259609,0.8328695358847276,0.36494652095062763,1.1701467065203324,0.4703736873470987,1.3696934041585667,1.2229677549377413,0.5849939869396784,0.36270272515655044,1.0693216243292776,0.427747451150471,0.8464987678356524,0.473989814562649,0.9405372928746039,0.5043157070960124,1.4945872890031378,0.05197421592604377,1.0969746998858945,1.1164419767652856,1.0291796339673378,1.1153396025155284,1.0424869184468208,1.506647167885212,0.5377491372452595,0.8222590926763186,0.8204613314185055,0.4950583471061564,0.7627647089247134,0.11397124241112802,0.6763229498958293,0.539494175785542,0.9627287725172148,0.83984375,0.9627287725179589,0.539494175785447,0.6763229498959562,0.11397124241159538,0.7627647089242863,0.4950583471062802,0.820461331418685,0.822259092676486,0.5377491372452051,1.506647167885268,1.0424869184466843,1.1153396025156481,1.0291796339673476,1.1164419767651297,1.0969746998856924,0.051974215925859664,1.4945872890033467,0.5043157070950631,0.9405372928744629,0.47398981456307715,0.8464987678356217,0.4277474511505306,1.0693216243294335,0.36270272515640606,0.584993986939314,1.2229677549379514,1.3696934041586186,0.4703736873472844,1.1701467065199036,0.3649465209509363,0.8328695358846384,0.8112450709256173,0.49258007736015236,1.3741677859728292,0.7693168014849219,1.2054773840220032,0.4493470414001717,0.3406221857657775,0.24127197530092714,0.8182317593291821,0.9348391951890158,0.9452440297265162,0.3445194228917294,0.9855847669207246,0.7790788360444203,1.105395518075687,1.4147964434617382,1.2056708521826722,1.0982914013598246,1.0471971593473766,1.5113230196479588,0.5188538027318583,0.7449568614637738,0.5224165501420758,1.6700280199526665,0.17272166377272383,1.0651403787865363,1.2319928197596584,0.26097023108841333,0.38004470160699905,0.9311522790980417,0.5746778750032664,0.5167763111981256,1.126162292493886,1.9503355924628516,1.2988277613994381,1.024813772587807,1.0941172291886576,1.0436420562277788,0.6496623025061267,0.9710190387416678,1.98178590131565,0.8283258710960347,1.4199389936573816,1.1991995828953699,1.0375455771537778,1.964972471542686,0.791960869725201,1.3580607808401783,1.416646882461724,0.8656480296164932,1.7779718679775127,0.835181294249086,0.817946663699521,2.107554457925678,1.2240417575643796,1.4710503730144202,2.3083668207148995,0.9400687256428554,3.3262877638696167,1.4905781307750425,2.0449943436670703,0.8894298164451917,2.3988891683528357,1.3875662156287698,1.7558978484537384,1.6344344034483855,2.2698630574851166,2.2793167659524274,3.265710311337623,1.61579348834925,3.3179671320196067,3.2591902641025268,6.043619621334109,4.300026465985767,4.966636014220577,6.9784548859071025,4.593695277680619,6.026018535951637,0.2909975081436335,7.1930488952131535,7.907313913554993,9.334491152955131,8.570648553261812,4.2937464975376205,15.185534287589569,7.259507365396494,23.266986286830026,24.65225720864447,2
156.005859375,31.432191067941936,11.526872481091077,19.870987578920786,8.820709216498905,12.49649530497832,6.543296920591872,10.49736292097437,10.853302582353969,5.165780043882766,7.167378473791644,7.441009253324623,5.839944194869936,2.030578039283395,5.613380467275894,2.4728244587389048,3.593558384632973,1.5042869547042585,1.2591851784346426,1.396063888867175,2.500798722250012,2.5068220093055866,0.9309262852313409,0.8689569259281488,2.544851838806796,1.797908607647686,0.23354913662247143,1.6193112926531739,2.8955836715301144,1.8403776309099507,0.20957996559455194,0.4235475696045559,2.1355895733684136,2.308998853353862,0.9406100258721163,2.3334930672753336,0.6284848543588161,1.9356329326720096,2.0099233697381114,1.2383548066123016,1.3109146716347457,2.805577984573134,1.3164050291306462,0.5372270409666421,1.110127284181949,1.871311192973848,0.4527024642119816,0.9365943636314856,0.7305358325368001,0.5008695464926279,0.49586454278248354,0.6005424419124059,1.053551803488015,1.2815564391787646,1.267155659958605,0.8402391393325843,0.7465811528509648,0.3498556480857654,1.1756307022270913,0.5983908814097166,1.0054326309557846,1.2868054396850221,0.24259864211482343,1.2850712565720668,0.4744238237287423,1.0012750417972105,1.3947787845501047,0.4328025974490452,0.4669967514100728,0.3746523144595771,0.7456543364739253,1.116120338824767,0.7131833892794855,0.4515108386968456,0.9852208830096215,1.5919225819092753,0.7681353987612347,0.7535827137316357,0.622481146245865,0.38544212524684357,0.6117951677900977,0.4293460024437067,0.8478372441165449,1.5450177614303409,0.8463383725223819,0.5647192015072066,0.20012188637767986,0.8158714071020052,1.2245718949283497,0.49206309672816856,0.3271740856310182,0.47573439686505375,1.2248247944796813,1.1758229223301535,0.9020540784598754,1.287598204710707,1.0155279171948925,1.2975581681190356,0.7820142762460969,0.2957135799880342,0.9645559404682441,0.7927535558018621,0.5058630574760774,0.7498230239907414,1.267651664675419,1.7943455076724129,1.3194476691836012,0.9839487725199282,0.8249533650650225,0.5772560241146599,0.20070343175179134,0.7665831741539105,1.1428377928525002,1.0441933353703685,0.7515771102421943,0.7217834715482633,0.29096540310863606,0.029858713102309944,0.7839558763469735,0.6860641474084033,0.478515625,0.6860641474072126,0.783955876346875,0.029858713102525056,0.29096540310873703,0.7217834715481414,0.751577110242199,1.0441933353709139,1.142837792852428,0.7665831741538996,0.2007034317518932,0.5772560241144761,0.8249533650649568,0.9839487725199312,1.3194476691833388,1.7943455076723058,1.2676516646746572,0.749823023990865,0.5058630574761442,0.7927535558019968,0.9645559404676491,0.2957135799881649,0.7820142762468321,1.2975581681191117,1.0155279171949891,1.2875982047108065,0.9020540784598176,1.1758229223301795,1.2248247944799415,0.4757343968644045,0.32717408563125877,0.4920630967285341,1.2245718949283058,0.815871407101885,0.2001218863773629,0.5647192015070486,0.8463383725223219,1.5450177614303735,0.8478372441158438,0.42934600244486604,0.6117951677906595,0.38544212524592253,0.6224811462463914,0.7535827137315739,0.7681353987615158,1.5919225819094858,0.9852208830092769,0.4515108386970791,0.7131833892791559,1.1161203388246177,0.7456543364736955,0.37465231445943803,0.4669967514098861,0.43280259744904676,1.3947787845499464,1.0012750417971796,0.47442382372879927,1.2850712565717013,0.2425986421142816,1.286805439684595,1.005432630955788,0.5983908814098188,1.1756307022270833,0.34985564808539804,0.7465811528509612,0.840239139332492,1.267155659958826,1.2815564391785583,1.0535518034883684,0.6005424419125108,0.4958645427821656,0.5008695464922782,0.730535832537112,0.9365943636314101,0.4527024642120529,1.8713111929736357,1.1101272841815113,0.5372270409665093,1.3164050291305949,2.805577984573021,1.3109146716327869,1.2383548066141796,2.009923369739143,1.9356329326718305,0.6284848543584727,2.3334930672744276,0.9406100258717848,2.308998853353414,2.1355895733684314,0.42354756960462475,0.20957996559423953,1.8403776309102153,2.8955836715299785,1.6193112926530968,0.23354913662238955,1.7979086076479882,2.544851838807253,0.868956925928634,0.930926285231403,2.5068220093048734,2.5007987222502597,1.3960638888670358,1.2591851784343562,1.5042869547046802,3.5935583846328623,2.47282445873855,5.613380467275712,2.0305780392829265,5.83994419487018,7.441009253324549,7.167378473791092,5.165780043883044,10.853302582354301,10.497362920974037,6.5432969205908895,12.496495304979161,8.820709216499417,19.870987578920214,11.526872481088619,31.43219106794583,2
97.0166015625,17.55404075669934,5.958758443871441,9.380569873260157,4.422418164114045,9.946559133611427,5.308306829413329,7.783056210915372,3.3367586940554985,5.215858532950548,2.989515828551857,4.441895439202094,3.838534748167314,4.159120040550729,3.877276296438645,3.0720933333985374,2.6548730516765393,2.0610457350209104,1.7982791344488285,2.4636859200600667,1.5952962771165289,1.2500598579838278,2.0933826870531638,1.649060795161148,1.6325726101894982,2.014204572877036,1.620840644700074,1.194837288287165,1.652396671922405,1.3237719966143795,1.0684796084724217,0.5416356656447173,1.074545018574867,0.3474345859300595,0.41953974749698003,1.2137257923962603,0.838160991675206,1.1270662793670572,0.9760951211985983,2.164441120215042,0.5542153511554759,0.5023513355943343,0.4645824061692036,0.412749347865118,0.5773229428975059,0.51081065799336,0.1842495289295541,0.20738442551910471,0.8054004124800742,0.36355219510976106,0.6107940990912547,1.0545738566711405,0.3696684617945112,1.02804372219039,0.9949181147944084,0.827675721159638,0.8672731362196116,0.6508451455451473,0.29794286232718253,0.5545006320760755,0.2044377091353101,0.4297007639541291,0.3370289404095667,0.5490347538849336,0.2599576002804903,0.42245124368609493,0.1663500181798653,0.5526855588538353,0.715855425417656,0.28018661371782216,1.1314111525748853,1.299500815943484,0.45258945126833355,0.4899775015090691,0.4442134743674881,0.2723650482559456,0.7349872995073788,0.8528824178086043,0.6153925794416617,0.2976638866978642,0.4774431939813976,0.11285426637967784,0.20147192882837472,0.12065273839323315,0.30715024256743895,0.7361637232625109,0.6361337063527943,0.3468452055052383,0.03976581149098643,0.11581960305543644,0.24848594011696834,0.44017353445351043,0.3644883811507798,0.3842799244613059,0.10357735105077305,0.14279262528718317,0.4213053950278355,0.7886157863200548,0.1425815741564808,0.26698660923281475,0.3565527385348201,0.31919395212753154,0.5269196398877468,1.108343381119097,0.7391554816777506,0.1722338500475126,0.23922939616765865,0.49891691498925833,0.3170477433562785,0.10324848746903151,0.5935354450168246,0.9600202799448959,0.4996457132801911,0.48114300609805133,0.31732443107829583,0.5091798496197191,0.3391385170586653,0.3192140490305623,0.5318125433736313,0.45195592575413085,0.5322265625,0.45195592575459276,0.5318125433739428,0.31921404903061235,0.33913851705864656,0.5091798496197554,0.3173244310783911,0.48114300609788024,0.49964571327998836,0.9600202799448327,0.5935354450167036,0.10324848746901778,0.31704774335617764,0.4989169149893613,0.23922939616765196,0.17223385004732555,0.7391554816773475,1.1083433811189618,0.5269196398870195,0.3191939521274385,0.3565527385348855,0.2669866092328207,0.14258157415677872,0.7886157863197916,0.4213053950279089,0.1427926252873114,0.10357735105080411,0.3842799244613,0.36448838115072135,0.4401735344537832,0.24848594011711114,0.11581960305591425,0.039765811490909776,0.34684520550522263,0.6361337063526457,0.736163723262393,0.30715024256745793,0.12065273839305216,0.20147192882896592,0.11285426637885432,0.4774431939809115,0.29766388669768107,0.6153925794415468,0.8528824178084823,0.7349872995072183,0.27236504825601415,0.4442134743674024,0.4899775015091118,0.4525894512688536,1.2995008159437091,1.131411152574998,0.280186613717785,0.7158554254176318,0.5526855588539213,0.1663500181797467,0.42245124368593906,0.2599576002806824,0.5490347538851037,0.33702894040936116,0.4297007639538828,0.20443770913538226,0.5545006320760798,0.297942862327133,0.6508451455450476,0.8672731362196024,0.8276757211594928,0.9949181147943325,1.028043722190203,0.3696684617944617,1.0545738566711156,0.6107940990917055,0.36355219510957054,0.8054004124801922,0.20738442551914646,0.18424952892921634,0.5108106579937839,0.5773229428974451,0.4127493478656051,0.4645824061700324,0.5023513355937382,0.5542153511560713,2.1644411202151543,0.9760951211988724,1.1270662793675057,0.8381609916752311,1.2137257923964133,0.41953974749698747,0.347434585929313,1.0745450185754422,0.5416356656448605,1.0684796084725507,1.3237719966143864,1.6523966719225787,1.1948372882871658,1.6208406447000678,2.0142045728773463,1.6325726101897111,1.6490607951608272,2.0933826870529666,1.2500598579843758,1.5952962771168633,2.4636859200600187,1.7982791344487652,2.061045735020932,2.6548730516764563,3.072093333398692,3.8772762964388092,4.15912004055098,3.8385347481674987,4.441895439202166,2.9895158285512307,5.215858532950792,3.3367586940556215,7.783056210915685,5.308306829413817,9.94655913361141,4.4224181641135605,9.380569873260264,5.958758443871682,17.554040756701227,2
