sample,op_cl_op1,op_cl_op2,op_cl_op3,op_cl_op4,op_cl_op5,op_cl_op6,op_cl_op7,op_cl_op8,op_cl_op9,op_cl_op10,op_cl_op11,op_cl_op12,op_cl_op13,op_cl_op14,op_cl_op15,op_cl_op16,op_cl_op17,op_cl_op18,op_cl_op19,op_cl_op20,op_cl_op21,op_cl_op22,cl_rd_cl1,cl_rd_cl2,cl_rd_cl3,cl_rd_cl4,cl_rd_cl5,cl_rd_cl6,cl_rd_cl7,cl_rd_cl8,cl_rd_cl9,cl_rd_cl10,cl_rd_cl11,cl_rd_cl12,cl_rd_cl13,cl_rd_cl14,cl_rd_cl15,cl_rd_cl16,cl_rd_cl17,cl_rd_cl18,cl_rd_cl19,cl_rd_cl20,cl_rd_cl21,cl_rd_cl22,ex_fl_ex1,ex_fl_ex2,ex_fl_ex3,ex_fl_ex4,ex_fl_ex5,ex_fl_ex6,ex_fl_ex7,ex_fl_ex8,ex_fl_ex9,ex_fl_ex10,ex_fl_ex11,ex_fl_ex12,ex_fl_ex13,ex_fl_ex14,ex_fl_ex15,ex_fl_ex16,ex_fl_ex17,ex_fl_ex18,ex_fl_ex19,ex_fl_ex20,ex_fl_ex21,ex_fl_ex22,sp_pr_sp1,sp_pr_sp2,sp_pr_sp3,sp_pr_sp4,sp_pr_sp5,sp_pr_sp6,sp_pr_sp7,sp_pr_sp8,sp_pr_sp9,sp_pr_sp10,sp_pr_sp11,sp_pr_sp12,sp_pr_sp13,sp_pr_sp14,sp_pr_sp15,sp_pr_sp16,sp_pr_sp17,sp_pr_sp18,sp_pr_sp19,sp_pr_sp20,sp_pr_sp21,sp_pr_sp22,pn_op_pn1,pn_op_pn2,pn_op_pn3,pn_op_pn4,pn_op_pn5,pn_op_pn6,pn_op_pn7,pn_op_pn8,pn_op_pn9,pn_op_pn10,pn_op_pn11,pn_op_pn12,pn_op_pn13,pn_op_pn14,pn_op_pn15,pn_op_pn16,pn_op_pn17,pn_op_pn18,pn_op_pn19,pn_op_pn20,pn_op_pn21,pn_op_pn22
1,2,50,57,391,2,382,169,257,379,,285,292,429,4,337,366,16,37,456,387,63,0,13,19,37,44,,16,38,36,2,4,293,276,35,495,384,,,316,,340,189,21,1,65,34,84,28,40,225,377,276,178,,325,7,16,403,352,,,3,475,278,14,128,,94,167,20,38,37,334,319,47,,304,,470,262,282,279,280,532,,187,,1,25,64,12,3,264,272,870,522,308,3,32,443,411,,289,3,52,367,373,195,600
2,199,23,23,52,36,22,0,127,313,,283,292,429,442,0,5,315,325,218,247,158,3,25,18,189,3,,2,431,13,7,447,300,296,511,478,99,,,303,,347,174,333,47,66,95,116,26,74,185,195,172,259,,387,448,413,372,338,,,399,75,278,159,36,8,233,146,19,14,219,36,261,673,,67,,462,293,288,0,280,443,,185,,140,64,,267,6,59,127,177,214,305,349,361,429,446,,291,312,337,380,388,2,414
3,203,23,23,52,40,24,173,7,312,,283,293,429,436,367,368,313,324,215,249,162,191,31,17,225,243,,33,431,106,374,448,298,0,6,481,398,,,298,,349,179,295,51,95,104,106,26,65,174,5,181,258,,382,446,417,355,5,,,402,275,276,157,34,36,69,155,18,15,210,4,263,672,,270,,467,292,288,280,280,447,,186,,127,66,265,216,104,72,124,173,213,307,343,4,436,441,,292,318,332,381,388,196,423
4,210,19,21,49,35,25,170,128,312,,283,293,429,440,365,363,312,324,214,249,167,194,28,18,218,249,,40,405,106,375,461,300,290,500,474,403,,,323,,348,199,280,5,89,100,111,27,70,176,378,190,260,,379,449,423,358,359,,,407,274,277,156,32,35,54,157,16,15,204,245,266,672,,271,,477,290,286,281,283,448,,187,,119,64,262,3,104,82,126,171,222,308,348,374,437,446,,290,321,333,393,385,6,409
5,201,18,23,49,36,22,168,127,312,,283,293,430,444,361,368,308,324,217,249,171,194,28,23,222,232,,36,405,111,373,441,8,289,507,471,403,,,325,,348,178,307,104,96,97,112,41,74,180,356,1,259,,362,453,424,357,355,,,409,278,278,158,29,43,43,8,17,18,202,251,263,674,,270,,463,287,287,286,285,449,,188,,143,65,263,139,135,87,169,174,214,308,9,381,439,0,,292,337,7,392,385,213,406
6,200,18,29,54,32,16,172,137,312,,283,291,431,444,359,357,308,324,228,249,5,193,26,23,238,271,,35,417,110,373,449,286,289,508,472,407,,,326,,348,184,309,104,98,92,118,38,72,9,328,187,258,,353,467,421,346,358,,,3,278,279,158,31,40,45,118,13,14,200,205,261,679,,269,,445,289,286,280,289,454,,185,,135,68,261,130,140,68,159,169,220,307,343,383,435,455,,291,325,317,385,387,211,413
7,201,18,28,46,31,18,172,169,311,265,281,291,432,442,356,359,309,324,225,250,16,190,23,24,226,309,,27,405,114,370,433,287,289,510,488,409,,,307,,347,164,275,97,90,87,117,28,71,389,369,183,262,,353,474,419,343,357,,,395,277,284,155,35,42,46,286,14,11,211,146,263,684,,269,446,427,291,289,282,291,457,,187,,120,70,261,128,107,79,148,158,217,312,340,387,441,457,,290,323,312,401,386,208,7
8,215,21,30,46,29,17,169,168,311,264,282,293,431,442,353,353,310,324,225,250,181,194,26,18,237,292,,32,404,177,371,436,289,290,508,481,410,,,330,,347,161,278,117,92,98,109,29,100,391,470,187,277,,361,479,422,339,360,,,396,281,287,157,34,41,49,238,16,12,213,139,267,0,,269,452,426,289,286,284,293,461,,186,,107,72,258,127,112,75,137,7,223,308,337,382,436,453,,290,317,314,410,385,211,610
9,208,20,29,47,32,18,179,140,311,266,281,292,431,447,355,355,310,326,225,251,179,193,30,19,246,315,26,34,406,372,374,429,286,289,498,478,409,40,430,321,,347,159,259,122,91,104,114,34,98,373,490,185,282,,371,486,425,341,358,,,398,283,288,155,38,47,49,176,19,12,209,137,258,687,,1,453,422,2,286,278,294,462,,184,,104,71,223,130,137,89,132,126,223,305,342,384,450,445,,291,318,315,405,386,209,606
10,219,18,28,48,28,20,176,123,310,266,282,293,431,446,353,353,314,328,224,253,180,188,32,20,237,275,61,41,415,3,376,421,288,290,501,476,416,334,367,323,,343,163,260,107,85,106,17,27,68,378,505,185,283,,9,478,421,339,358,,,399,282,292,154,35,35,46,148,21,15,204,137,254,687,,310,455,428,287,285,278,295,461,,186,,101,70,232,125,159,65,191,130,222,301,347,389,442,460,,289,322,311,408,387,206,607
11,222,16,23,49,31,19,175,123,311,264,282,293,430,453,355,355,318,328,227,252,182,191,32,18,247,355,91,40,422,147,378,420,288,290,504,493,417,332,350,331,,343,163,285,91,94,100,105,29,59,373,493,187,281,,383,477,449,343,352,,,400,282,299,152,37,35,55,180,21,15,207,148,255,683,,307,458,429,290,285,281,296,465,,191,,99,208,209,118,130,61,323,133,226,302,348,393,435,452,,290,315,310,390,383,211,606
12,222,18,25,56,28,17,178,120,310,261,282,295,427,433,353,360,320,329,225,254,182,194,29,18,227,298,105,66,428,152,376,421,286,290,499,501,415,338,356,328,,343,157,273,68,91,103,95,36,56,388,486,187,280,,354,476,454,344,356,,,397,283,303,155,37,33,67,166,18,16,207,166,256,684,,304,450,425,291,285,286,296,0,,2,,99,231,233,124,106,54,228,127,229,301,353,402,454,454,,289,323,310,381,385,214,590
13,219,18,29,58,23,19,174,120,309,263,283,293,426,423,355,365,8,329,226,252,182,193,28,21,108,277,114,14,307,143,369,1,284,288,495,488,416,350,336,327,,341,153,266,68,101,102,101,35,59,375,491,193,279,,353,480,450,344,351,,,401,280,306,156,32,39,74,162,19,14,210,166,263,688,,305,443,430,289,286,281,294,433,,191,,99,165,196,124,107,65,199,128,225,303,353,401,454,454,,289,323,319,381,385,212,452
14,207,20,26,57,22,16,176,130,309,263,283,293,424,423,355,375,30,330,226,253,9,192,24,20,79,197,113,15,174,128,371,421,284,289,499,479,414,345,332,325,,348,159,254,68,95,90,108,40,63,388,547,197,279,,386,476,454,346,348,,,401,283,311,156,32,38,86,150,16,14,208,177,267,684,,305,445,431,289,283,281,293,434,,196,,100,137,217,115,106,98,190,126,237,306,358,460,449,441,,289,331,327,382,381,212,406
15,203,22,26,55,23,20,179,148,311,261,282,294,423,422,354,368,309,331,222,255,194,195,24,22,77,174,132,19,147,114,365,420,287,290,501,492,413,344,339,318,,355,171,248,70,102,97,114,35,69,391,539,201,281,,385,472,444,349,348,,29,404,281,315,5,30,30,108,139,16,13,207,180,269,683,,291,446,430,290,285,287,292,433,,198,,104,123,161,119,149,103,177,135,227,304,361,403,438,449,,290,331,345,377,382,208,402
16,203,22,23,55,25,23,179,155,313,260,281,296,422,422,356,1,305,332,219,8,188,195,26,18,47,,116,20,147,141,370,440,284,297,503,496,414,349,336,313,,361,164,242,62,102,96,107,33,74,395,513,204,282,,384,473,446,343,348,,6,402,280,321,154,30,32,108,131,16,16,205,179,265,680,,288,448,429,295,292,290,292,434,,203,,108,116,137,132,111,102,258,144,5,303,363,400,448,450,,289,323,341,377,384,206,387
17,202,19,24,59,21,22,182,138,316,257,282,296,421,420,358,353,305,333,219,257,183,200,26,17,39,28,103,21,153,152,368,427,283,299,520,506,413,344,337,305,453,375,184,242,52,97,91,105,36,80,386,485,209,282,367,391,476,447,349,348,,285,400,280,322,156,33,38,122,131,18,18,210,165,262,701,,288,446,440,292,288,289,292,434,,195,,109,102,188,160,97,92,275,134,237,306,364,387,431,445,,291,323,338,376,393,204,387
18,215,17,25,57,21,23,182,129,317,257,283,297,422,3,359,353,305,333,219,255,180,201,28,17,40,25,105,32,147,146,372,418,283,292,522,550,417,342,333,6,364,421,198,249,49,95,93,117,38,68,388,453,201,283,383,388,476,447,348,350,,287,403,280,326,154,33,40,246,129,16,16,206,183,264,684,,289,455,442,297,288,286,292,433,,199,,109,131,184,232,128,117,222,159,229,308,362,388,430,451,,293,340,345,369,372,209,389
19,206,22,27,54,26,20,137,126,319,256,282,299,421,428,359,358,303,8,222,253,181,205,26,20,41,28,91,33,147,141,374,415,282,310,506,547,415,344,325,313,325,522,184,255,50,99,84,114,36,62,375,301,196,286,380,389,475,445,352,346,,288,403,279,325,154,33,35,278,128,18,13,210,184,262,684,,288,459,439,293,288,2,291,435,,197,,112,110,180,238,99,120,211,196,216,310,365,394,435,459,,292,312,332,369,376,200,393
20,214,23,30,56,20,20,137,129,323,260,5,300,421,427,361,361,301,336,219,253,188,208,24,19,39,62,77,49,172,162,374,415,285,311,511,527,414,336,327,308,302,414,186,255,51,89,38,109,39,72,383,197,194,285,376,389,6,447,355,341,,290,394,277,248,156,33,34,261,140,17,14,198,172,264,683,,286,456,435,296,290,300,292,439,,190,,113,117,176,213,124,120,293,202,214,300,359,387,438,457,,297,315,330,372,374,201,395
21,216,25,35,54,21,21,135,129,324,259,286,301,448,429,364,360,301,336,227,253,179,207,23,16,32,55,84,59,170,165,369,424,283,303,544,526,418,336,333,306,323,464,201,259,51,86,158,101,36,82,372,179,195,285,373,387,414,446,349,345,,289,396,27,249,159,42,33,217,142,17,13,199,171,264,696,,298,458,436,297,293,296,288,436,,191,,113,134,156,259,117,99,309,181,218,272,359,371,444,457,,293,3,344,358,378,207,400
22,1,25,36,53,20,21,137,132,324,260,287,299,446,430,361,360,297,333,222,251,179,208,22,14,36,43,75,65,157,139,378,426,286,300,534,495,412,343,330,305,319,420,186,225,47,84,128,109,26,71,239,179,194,283,379,384,400,450,358,344,,290,393,273,247,160,43,31,202,131,20,14,198,169,265,687,,280,450,438,294,291,292,288,434,,197,,110,120,141,323,110,87,334,169,217,272,351,395,441,449,,293,322,338,360,374,204,400
23,221,22,34,54,21,23,135,127,319,259,286,298,444,431,2,361,296,332,223,250,179,212,25,15,39,42,84,83,147,127,368,461,291,299,548,489,4,338,323,302,317,414,183,221,42,81,121,116,27,79,201,179,193,2,6,382,431,445,350,339,,292,392,273,245,158,39,35,207,137,18,15,196,137,268,678,,285,452,440,294,292,292,287,433,,192,,108,116,179,289,96,112,390,174,218,276,343,390,429,448,,293,311,346,368,376,205,398
24,218,20,27,62,24,25,137,125,318,260,285,301,437,432,371,362,300,329,224,249,179,218,29,20,40,48,74,75,141,117,369,454,294,296,525,464,416,334,331,302,325,411,175,236,48,92,120,112,34,118,214,186,178,283,395,381,426,444,351,340,,292,393,276,245,157,36,29,233,135,21,14,203,138,267,671,,265,434,439,294,294,292,287,434,,189,,105,136,181,266,,123,5,171,214,279,343,383,434,452,,293,323,332,364,383,194,418
25,205,21,24,62,24,20,134,129,318,258,285,302,431,435,370,365,298,329,226,249,175,215,30,22,37,59,61,80,147,117,369,444,294,293,519,494,406,333,346,302,314,348,187,3,44,84,123,102,31,88,212,182,172,282,383,389,443,441,354,338,,290,393,275,244,161,33,31,205,140,26,16,195,147,267,659,928,263,429,442,295,298,290,288,433,,192,,98,112,149,248,47,103,122,165,215,275,349,385,444,449,,1,318,341,364,383,193,418
26,198,22,27,59,22,20,132,129,318,258,285,3,427,437,371,362,300,327,222,247,183,216,27,21,27,55,52,50,139,127,369,441,292,291,518,489,402,321,334,301,306,367,196,367,53,83,121,101,38,61,202,180,174,279,399,391,440,440,357,336,,297,393,274,247,158,32,41,211,144,12,11,211,134,273,652,373,271,434,436,297,301,289,286,436,,190,,124,115,193,291,48,86,127,156,215,278,356,377,439,452,,292,320,334,352,389,196,407
27,198,22,33,52,19,19,134,125,316,255,285,292,425,440,368,363,301,327,3,247,182,218,25,19,28,54,50,51,141,119,376,426,293,296,505,506,401,319,326,305,331,392,176,317,57,82,139,117,33,61,185,177,176,266,395,393,441,441,356,337,,300,391,273,246,159,34,33,234,148,19,19,214,138,277,651,377,268,438,437,292,7,289,286,441,,187,,156,134,188,269,54,114,128,170,214,282,350,372,435,450,,292,315,336,350,386,194,403
28,199,18,26,48,19,21,138,127,317,256,283,292,424,442,370,365,301,325,218,247,178,3,20,16,34,59,64,50,144,113,7,447,300,296,511,525,399,326,343,303,310,406,180,333,54,91,126,116,41,51,185,195,172,259,385,387,448,438,350,338,,318,399,275,248,159,33,35,237,146,22,18,211,136,280,673,377,267,438,432,293,288,290,285,443,,185,,140,114,178,267,55,103,127,177,214,282,349,361,440,446,,291,312,337,357,384,192,414
29,203,19,21,53,19,25,137,7,316,256,283,293,424,436,367,368,302,324,215,249,178,191,23,14,54,57,105,51,141,106,374,448,298,0,6,514,398,324,337,298,319,401,176,295,57,82,115,106,40,67,174,5,181,258,388,382,446,439,352,345,,332,402,275,248,157,34,24,244,155,22,14,212,4,277,672,375,270,439,429,292,288,280,284,447,,186,,127,117,198,216,60,98,124,173,213,287,343,4,444,441,,292,318,332,354,386,196,423
30,210,18,24,58,21,24,136,128,314,256,283,293,424,440,365,363,307,324,214,249,176,194,24,17,62,115,92,50,141,106,375,461,300,290,500,514,403,322,348,323,395,385,175,280,50,89,95,111,60,75,176,378,190,260,395,379,449,445,348,344,,299,407,274,249,156,36,24,233,157,23,12,218,245,273,672,373,271,438,431,290,286,281,285,448,,187,,119,101,172,3,76,110,126,171,222,291,348,374,438,446,291,290,321,333,365,382,161,409
31,201,19,26,60,22,25,137,127,315,254,283,293,423,444,361,368,306,324,217,249,171,194,26,18,189,153,75,50,146,111,373,441,293,289,507,474,403,328,340,325,328,411,193,307,40,87,104,112,67,,180,356,1,259,380,362,453,448,348,345,,289,409,278,251,158,32,26,69,8,20,16,219,251,275,674,383,270,438,430,287,287,286,309,449,,188,,143,125,199,139,104,108,169,174,214,288,9,381,448,435,310,292,337,7,378,383,175,406
32,200,19,27,68,19,21,135,137,317,255,283,291,422,444,359,357,306,324,228,249,177,193,25,19,225,243,94,42,143,110,373,449,295,289,508,471,407,338,339,326,310,378,182,309,46,87,100,118,63,82,9,328,187,258,386,353,467,447,346,345,,304,3,278,253,158,31,25,54,118,17,11,221,205,275,679,387,269,443,428,289,286,280,2,454,,185,,135,158,151,130,104,124,159,169,220,283,343,383,448,440,311,291,325,317,364,385,165,413
33,201,22,27,72,15,25,137,169,315,254,281,291,421,442,356,359,306,324,225,250,177,190,25,19,218,249,91,34,143,114,370,433,300,289,510,484,409,328,332,307,303,364,204,275,47,87,97,117,62,75,389,369,183,262,393,353,474,444,347,347,,313,395,277,241,155,28,34,43,286,18,13,219,146,275,684,397,269,446,426,291,289,282,4,457,,187,,120,131,158,128,135,113,148,158,217,290,340,387,449,446,312,290,323,312,368,383,173,7
34,215,23,23,77,18,24,135,168,316,251,282,293,419,442,353,353,307,324,225,250,181,194,25,18,222,232,86,32,139,177,371,436,294,290,508,478,410,337,340,330,317,420,178,278,51,76,92,109,67,74,391,470,187,277,395,361,479,451,351,345,,305,396,281,238,157,36,38,45,238,19,14,214,139,274,685,400,269,446,430,289,286,284,305,461,,186,,157,125,178,127,140,110,137,7,223,285,337,382,452,441,310,290,317,314,367,381,169,610
35,208,23,23,74,18,21,131,140,315,254,281,292,418,447,355,355,309,326,225,251,179,193,31,17,238,271,76,33,139,372,374,429,297,289,498,460,409,336,336,321,337,382,188,259,45,75,87,114,62,65,373,490,185,282,387,371,486,449,344,349,,312,398,283,237,155,34,36,46,176,18,15,215,137,274,683,408,267,446,424,2,286,278,304,462,,184,,171,140,202,130,107,99,132,126,223,284,342,384,451,435,311,291,318,315,366,380,169,606
36,219,19,21,71,22,21,133,123,313,251,282,293,417,446,353,353,306,328,224,253,180,188,28,18,226,309,75,40,137,137,376,421,299,290,501,459,416,335,353,323,337,397,192,260,45,71,98,17,56,70,378,505,185,283,374,9,478,448,343,349,,307,399,282,240,154,32,35,49,148,16,15,216,137,273,688,378,268,455,423,287,285,278,287,461,,186,,135,138,182,125,112,125,191,130,222,281,347,389,446,446,313,289,322,311,377,380,171,607
37,222,18,23,75,26,20,131,123,314,249,282,293,417,453,355,355,309,328,227,252,182,191,28,23,237,292,78,36,137,134,378,420,306,290,504,461,417,333,346,331,324,387,191,285,45,72,104,105,56,74,373,493,187,281,372,383,477,443,342,346,,297,400,282,239,152,29,43,49,180,17,18,218,148,276,687,367,266,459,422,290,285,281,282,465,,191,,148,149,166,118,137,114,323,133,226,280,348,393,444,435,312,290,315,310,374,377,167,606
38,222,18,29,77,27,19,139,120,313,254,282,295,416,433,353,360,308,329,225,254,182,194,26,23,246,315,95,35,142,135,376,421,301,290,499,445,415,336,348,328,317,408,208,273,47,71,106,95,76,72,388,486,187,280,373,354,476,445,344,350,,290,397,283,243,155,31,40,46,166,13,14,214,166,278,685,328,265,467,424,291,285,286,279,468,,2,,147,140,159,124,159,107,228,127,229,274,353,402,449,447,310,289,323,310,368,369,176,590
39,219,18,28,77,25,19,139,120,312,253,283,293,415,423,355,365,307,329,226,252,182,193,23,24,237,275,86,27,138,135,369,423,314,288,495,458,416,334,341,327,315,379,196,266,45,82,100,101,76,71,375,491,193,279,370,353,480,445,341,348,,300,401,280,238,156,35,42,55,162,14,11,209,166,277,691,326,270,465,420,289,286,281,279,464,,191,,121,154,158,124,130,133,199,128,225,280,353,401,441,445,308,289,323,319,366,372,176,452
40,207,21,30,75,20,24,138,130,313,256,283,293,416,423,355,375,307,330,226,253,9,192,26,29,247,355,76,32,138,148,371,414,322,289,499,453,414,338,340,325,312,404,181,254,44,74,103,108,72,100,388,547,197,279,375,386,476,445,344,350,,284,401,283,239,156,34,41,67,150,16,12,207,177,275,692,310,269,474,423,289,283,281,282,463,,196,,127,137,177,115,106,142,190,126,237,279,358,460,444,449,307,289,331,327,367,371,167,406
41,203,20,29,70,20,26,138,148,312,257,282,294,415,422,354,368,303,331,222,255,194,195,30,35,227,298,86,34,141,144,365,409,323,290,501,448,413,335,337,318,310,396,180,248,49,74,102,114,97,98,391,539,201,281,376,385,472,447,342,347,,274,404,281,243,165,38,47,74,139,19,12,209,180,274,698,314,265,468,434,290,285,287,283,461,,198,,140,167,175,119,107,101,177,135,227,280,361,403,442,458,316,290,331,345,363,368,183,402
42,203,18,28,74,17,25,138,155,311,260,281,296,415,422,356,361,304,332,219,8,188,195,32,36,108,277,87,41,136,148,370,406,333,297,503,463,414,335,326,313,319,371,187,242,48,71,90,107,87,68,395,513,204,282,376,384,473,446,342,347,,280,402,280,240,168,35,35,86,131,21,15,205,179,276,699,307,269,474,435,295,292,290,290,463,,203,,134,151,143,132,106,127,258,144,219,279,363,400,427,460,318,289,323,341,364,367,181,387
43,202,16,23,77,18,21,135,138,309,266,282,296,415,420,358,358,303,333,219,257,183,200,32,35,79,197,85,40,134,151,368,398,332,299,520,456,413,334,343,305,342,376,185,242,45,63,97,105,63,59,386,485,209,282,367,391,476,442,345,344,,284,400,280,237,168,37,35,108,131,21,15,205,165,274,701,316,268,477,437,292,288,289,292,467,,195,,150,155,150,160,149,142,275,134,216,275,364,387,426,468,319,291,323,338,362,372,177,387
44,215,18,25,79,21,20,133,129,307,263,283,297,415,3,359,364,301,333,219,255,180,201,29,34,77,174,102,66,140,152,372,410,318,292,522,463,417,336,342,6,329,357,177,249,45,72,96,117,53,56,388,453,201,283,383,388,476,444,349,340,,282,403,280,240,166,37,33,108,129,18,16,205,183,278,700,318,269,477,437,297,288,286,301,470,,199,,131,137,144,232,111,114,222,159,218,279,362,388,433,468,319,293,340,345,364,371,173,389
45,206,35,29,81,18,23,136,126,308,267,282,299,414,428,359,363,301,316,222,253,181,205,28,30,47,,89,70,143,142,374,425,313,310,506,459,415,332,326,313,326,375,169,255,45,75,91,114,65,59,375,301,196,286,380,389,475,442,345,342,,272,403,279,239,167,32,51,122,128,19,14,207,184,275,698,316,271,482,440,293,288,301,297,484,,197,,144,146,156,238,97,95,211,196,219,272,365,394,429,467,319,292,312,332,358,382,178,393
46,214,33,26,82,17,21,137,129,307,269,298,300,412,427,361,363,300,315,219,253,188,208,24,31,39,28,95,55,165,158,374,410,311,311,511,472,414,331,316,308,326,374,193,255,45,82,93,109,72,63,383,197,194,285,376,389,480,443,350,340,,276,394,277,239,166,32,55,246,140,16,14,205,172,275,701,318,275,483,441,296,290,295,297,487,,190,,147,138,165,213,128,105,293,202,216,277,359,387,426,470,320,297,315,330,365,381,180,395
47,216,32,26,85,15,24,136,129,306,267,298,301,411,429,364,362,300,317,227,253,179,207,24,32,40,25,83,71,211,154,369,417,312,303,544,468,418,330,329,306,342,359,185,259,52,79,84,101,55,69,372,179,195,285,373,387,480,446,345,340,,283,396,282,239,166,30,50,278,142,16,13,211,171,277,705,318,276,484,444,297,293,298,306,491,,191,,173,126,205,259,99,89,309,181,217,277,359,371,427,467,321,293,337,344,369,375,177,400
48,1,30,23,79,16,25,137,132,306,269,297,299,412,430,361,360,297,318,222,251,179,208,26,31,41,28,82,54,240,153,378,413,306,300,534,492,412,325,327,305,346,360,176,225,51,73,101,109,54,74,239,179,194,283,379,384,482,440,348,335,,300,393,283,240,162,30,49,261,131,16,16,210,169,276,708,322,271,485,450,294,291,295,306,494,,197,,118,168,195,323,124,105,334,169,222,278,351,395,424,463,323,293,325,338,372,385,183,400
49,221,33,24,77,19,22,137,127,306,266,296,298,411,431,2,362,299,317,223,250,179,212,26,33,39,62,139,58,255,143,368,414,306,299,548,476,4,330,332,302,359,376,190,221,47,81,108,116,51,80,201,179,193,288,392,382,479,445,351,337,,297,392,280,240,166,33,49,217,137,18,18,210,137,279,706,304,272,476,450,294,292,295,302,502,,192,,161,154,175,289,117,152,390,174,214,275,343,390,432,466,322,293,334,346,369,381,182,398
50,218,34,25,75,26,21,135,125,304,265,293,301,404,432,371,362,299,319,224,249,179,218,28,32,32,55,95,68,248,154,369,414,308,296,525,480,416,328,337,302,348,375,192,236,45,76,104,112,73,68,214,186,178,287,392,381,474,439,348,336,,274,393,279,240,169,33,46,202,135,16,16,206,138,276,703,305,277,482,448,294,294,293,301,503,,189,,145,149,139,266,110,136,253,171,215,276,343,383,415,465,323,293,335,332,379,388,182,418
51,205,39,27,74,22,19,141,129,305,268,291,302,401,435,370,361,297,319,226,249,175,215,26,33,36,43,78,59,237,146,369,417,307,293,519,491,406,330,320,302,331,391,167,282,45,79,108,102,61,62,212,182,172,285,396,389,469,437,351,328,,279,393,278,240,168,33,45,207,140,18,13,204,147,273,704,307,273,480,451,295,298,293,302,502,,192,,144,136,173,248,96,113,251,165,216,275,349,385,419,463,319,1,341,341,382,384,178,418
52,198,35,30,77,21,21,138,129,305,266,291,303,401,437,371,360,301,318,222,247,183,216,24,32,39,42,76,61,218,151,369,416,306,291,518,480,402,323,328,301,318,373,211,283,45,77,100,101,57,72,202,180,174,290,398,391,472,435,355,324,,276,393,279,239,155,33,49,233,144,17,14,212,134,276,708,312,274,483,450,297,301,289,300,505,,190,,152,119,226,291,102,132,241,156,213,273,356,377,416,462,307,292,346,334,390,383,160,407
53,198,32,35,74,15,26,135,125,303,260,291,302,400,440,368,365,302,320,214,247,182,218,23,29,40,48,84,60,228,145,376,411,300,296,505,470,401,323,320,305,335,369,194,275,49,75,105,117,59,82,185,177,176,288,391,393,474,437,357,331,,273,391,278,240,151,35,55,205,148,17,13,221,138,272,700,311,272,482,453,292,311,286,314,504,,187,,128,134,170,269,118,106,260,170,212,270,350,372,423,459,302,292,341,336,387,382,163,403
54,199,33,36,69,16,27,133,127,303,262,290,303,400,442,370,358,303,322,217,247,178,234,22,32,37,59,92,65,214,192,375,414,300,296,511,482,399,320,344,303,337,354,200,274,45,75,106,116,54,71,185,195,172,286,391,387,474,437,352,331,,281,399,280,241,148,34,56,211,146,20,14,207,136,271,703,311,271,480,452,293,306,287,318,507,,185,,161,137,144,267,112,95,225,177,216,272,349,361,420,466,303,291,335,337,389,385,166,414
55,203,36,34,67,17,24,134,130,305,263,290,302,399,436,367,359,304,322,215,249,178,238,25,30,27,55,84,69,195,176,375,413,307,0,485,482,398,318,345,298,347,381,184,260,44,69,105,106,47,79,174,5,181,286,386,382,473,437,358,338,,281,402,279,241,149,31,47,234,155,18,15,214,4,267,701,312,271,478,451,292,306,278,314,506,,186,,165,153,165,216,77,130,240,173,226,274,343,377,422,462,303,292,326,332,382,377,172,423
56,210,40,27,70,20,21,134,129,308,264,285,309,400,440,365,360,304,321,214,249,176,236,29,33,28,54,97,65,177,178,370,404,302,290,524,466,403,313,330,323,338,368,194,267,46,76,103,111,49,118,176,378,190,285,392,379,472,434,352,342,,287,407,285,239,147,28,47,237,157,21,14,210,245,273,700,315,271,475,452,290,307,284,308,512,,187,,175,132,183,230,93,124,239,171,225,274,348,385,413,463,304,290,322,333,378,376,177,409
57,201,41,24,82,18,22,134,129,306,263,280,313,398,444,361,354,304,322,219,249,171,239,30,31,34,59,85,58,174,175,376,423,301,289,498,472,403,320,335,325,333,370,196,271,46,67,100,112,47,88,180,356,201,283,386,362,476,434,348,359,,282,409,286,239,148,24,43,244,8,26,16,215,251,273,701,316,273,476,450,287,305,278,300,510,,188,,161,148,170,241,175,97,220,174,221,270,355,380,418,462,303,292,315,335,377,376,176,406
58,200,41,27,84,19,26,136,131,309,261,279,316,397,444,359,358,306,317,219,249,177,240,27,27,54,57,79,63,171,196,378,407,295,289,517,460,407,321,331,326,317,395,199,298,45,73,100,118,61,61,161,328,197,283,380,353,471,431,350,350,,289,3,287,240,149,24,47,233,118,29,16,211,205,273,710,310,272,479,448,289,305,285,312,512,,185,,159,112,168,185,142,98,255,169,222,276,350,388,412,460,304,291,321,329,377,371,175,413
59,201,38,33,80,24,24,133,130,309,260,278,317,396,442,356,354,309,316,217,250,177,237,25,233,330,115,69,78,174,198,376,404,294,289,513,471,409,319,340,307,330,380,171,269,50,72,99,117,61,61,161,369,201,285,385,353,468,426,346,351,,278,395,290,241,152,28,42,223,286,25,22,209,146,275,709,315,276,485,451,291,302,286,309,507,,187,,126,113,137,187,132,101,227,158,222,272,350,385,417,453,302,290,324,332,382,368,168,423
60,215,36,26,71,15,27,139,129,309,262,278,316,394,442,353,350,309,316,219,250,181,237,20,144,315,153,99,66,173,185,385,400,294,290,506,496,410,318,339,330,354,356,166,273,46,80,100,109,57,51,155,470,202,281,386,361,465,424,351,350,,281,396,291,244,149,28,41,230,238,23,17,215,139,273,717,310,278,482,451,289,304,286,306,515,,186,,126,126,116,169,96,107,242,7,222,273,345,384,422,448,305,290,314,333,378,365,184,421
61,208,34,21,74,17,29,136,130,309,257,278,318,395,447,355,355,307,312,220,251,179,238,23,56,343,243,103,62,172,203,367,399,296,289,504,486,409,322,341,321,340,345,211,299,43,77,110,114,63,67,153,490,204,287,380,371,464,423,349,354,,279,398,293,244,145,28,46,232,176,23,19,214,137,271,722,310,280,485,452,286,299,289,309,507,,184,,149,139,110,192,95,132,194,126,213,275,352,386,411,453,303,291,330,340,373,361,168,416
62,219,36,24,75,18,26,139,129,309,256,277,318,395,446,353,354,305,314,221,253,180,239,24,41,384,249,95,53,183,211,381,398,294,290,504,496,416,319,326,323,315,402,175,249,48,84,108,122,57,75,166,505,204,282,388,413,459,432,344,348,,277,399,296,245,155,26,43,229,148,22,17,212,137,278,721,309,282,484,452,287,302,283,302,504,,186,,147,135,117,224,75,116,212,130,218,273,344,387,412,454,303,289,323,333,378,364,172,425
63,222,41,26,80,23,23,135,129,310,255,277,319,395,453,355,348,304,313,221,252,182,208,32,34,355,232,92,49,186,214,396,394,291,290,511,473,417,325,328,331,294,404,208,259,47,75,122,125,46,98,169,493,200,285,383,397,462,438,345,351,,286,400,293,247,186,23,41,220,180,21,18,218,148,281,716,308,282,478,450,289,300,285,297,504,,191,,149,141,123,180,100,105,235,133,219,272,356,384,418,452,305,290,314,342,375,374,176,416
64,222,38,27,76,23,23,140,131,311,255,276,321,395,433,353,348,305,310,221,254,182,197,33,33,450,271,76,57,180,207,396,400,296,290,499,490,415,326,342,328,350,391,194,277,47,73,104,122,45,83,157,486,197,284,378,391,455,438,348,348,,275,397,296,249,196,25,39,223,166,23,15,212,166,277,691,305,285,487,449,292,302,279,301,501,,188,,137,133,127,145,153,107,242,127,223,275,348,375,417,453,304,289,309,338,369,370,170,418
65,219,37,27,69,19,24,139,131,310,257,278,321,397,423,355,351,301,312,222,252,182,199,32,27,336,309,68,72,194,207,395,404,294,288,517,472,416,325,343,327,311,403,184,276,50,70,95,115,62,82,160,491,195,283,378,394,457,447,343,349,372,278,401,294,248,197,28,38,225,162,25,18,215,166,271,674,305,282,482,444,296,303,279,298,503,,191,,112,125,123,154,109,102,243,128,226,280,351,379,413,459,307,289,305,338,376,376,162,411
66,207,37,23,70,18,28,137,130,312,255,276,321,401,423,355,356,303,312,222,253,187,200,30,30,338,292,82,63,174,192,386,416,295,289,480,482,414,323,326,325,325,402,169,278,53,70,87,113,61,60,166,547,202,281,378,398,461,448,341,354,322,284,401,292,251,197,32,40,223,150,23,21,213,177,279,717,303,284,481,445,291,299,290,300,502,,190,,107,128,101,150,96,93,205,126,221,277,348,382,421,452,306,289,309,336,370,381,161,416
67,203,36,23,71,16,35,136,130,313,258,280,299,401,422,354,353,302,315,224,255,185,198,27,30,313,315,87,70,192,187,385,396,291,290,486,469,413,324,341,318,361,418,187,335,55,72,91,109,53,68,169,539,202,286,376,401,457,450,345,354,292,278,404,292,252,198,30,47,217,139,26,22,212,180,277,733,303,281,478,445,295,295,284,298,502,,189,,126,130,119,159,108,77,220,135,215,276,354,378,417,459,305,290,318,335,378,384,158,417
68,203,38,21,76,17,32,140,130,314,259,278,289,399,422,356,355,300,316,221,258,186,198,28,35,290,275,110,56,174,183,379,396,295,297,522,480,414,324,336,313,328,405,189,299,55,70,84,116,41,55,174,513,198,282,382,400,448,456,348,356,311,284,402,293,252,199,29,48,231,131,21,19,214,179,273,725,305,284,479,444,295,299,289,294,501,,196,,111,133,118,144,107,64,227,144,217,277,351,370,423,458,306,289,314,331,370,396,166,414
69,202,40,23,76,18,26,139,133,312,254,274,286,400,420,358,354,298,319,219,260,186,196,34,41,234,355,97,58,175,165,388,403,297,299,500,498,413,326,338,305,322,396,190,286,49,67,90,111,43,63,167,485,202,283,377,399,453,452,345,345,307,286,400,293,256,198,27,43,226,131,24,16,206,165,273,734,312,284,482,446,298,298,289,298,504,,193,,147,140,132,145,117,78,232,134,220,276,360,374,428,450,307,291,310,334,355,397,169,422
70,215,41,29,79,19,23,136,133,312,250,275,286,399,387,359,353,296,319,226,260,186,197,36,49,256,298,85,69,180,175,376,385,291,292,505,498,417,321,332,313,317,415,190,296,50,70,90,114,44,72,169,453,201,279,383,394,457,456,344,352,291,296,403,297,251,197,23,43,194,129,24,15,212,183,271,726,318,278,476,446,299,289,287,296,508,,188,,130,147,115,136,119,91,247,159,215,275,362,369,435,449,309,293,297,326,359,389,176,427
71,206,37,28,81,17,25,136,133,310,254,276,283,398,385,359,355,300,322,216,263,186,197,32,60,242,277,96,75,190,157,387,393,289,310,526,491,415,324,345,312,320,389,183,278,50,68,93,118,49,69,165,301,199,283,384,396,449,458,344,355,296,293,403,300,259,194,25,39,186,128,29,15,209,184,269,694,318,281,480,447,299,284,288,297,511,,188,,125,120,104,152,140,94,214,196,215,277,357,366,437,459,308,292,301,329,368,384,177,407
72,214,37,30,77,21,26,146,132,310,254,278,282,401,384,361,353,303,325,217,263,183,197,31,57,267,197,87,76,188,171,397,387,290,311,524,505,414,325,344,320,307,376,193,261,48,78,86,112,58,88,159,197,191,285,378,397,449,454,344,350,302,293,394,289,256,185,25,39,190,140,28,13,209,172,269,560,318,280,480,447,301,284,287,297,508,,190,,143,142,108,131,121,89,225,202,211,280,362,366,443,447,302,297,305,346,354,386,179,423
73,216,35,29,70,22,28,148,134,308,255,274,283,400,385,364,354,306,327,217,264,184,202,28,56,290,174,93,92,171,167,394,395,291,303,529,491,418,324,349,320,344,368,250,283,52,77,88,107,74,107,160,179,190,284,378,398,455,458,341,344,316,294,396,279,255,182,26,46,189,142,30,15,204,171,270,336,320,278,479,447,301,285,296,298,507,,185,,140,144,121,153,89,94,229,181,220,279,367,371,441,446,293,293,318,338,368,387,173,425
74,15,35,28,68,19,26,145,132,306,254,279,284,401,385,361,357,308,327,217,263,184,199,28,47,330,218,78,78,160,162,397,381,289,300,532,507,412,321,348,315,345,411,200,275,50,80,90,106,48,94,164,179,189,284,371,403,454,459,340,347,298,281,393,277,255,185,29,48,196,131,27,19,212,169,268,250,321,278,477,443,301,279,294,293,514,,191,,156,111,145,128,105,81,244,169,218,278,367,374,441,450,293,293,327,333,366,393,179,429
75,15,38,23,77,19,24,147,132,308,252,276,282,401,386,345,354,307,327,218,262,185,196,29,51,259,257,79,92,154,157,393,396,291,299,536,512,4428,323,326,310,364,362,245,294,46,80,90,119,45,80,161,179,187,285,383,398,454,458,345,353,293,277,392,277,256,180,26,44,226,137,27,15,212,137,270,233,320,277,480,446,300,281,294,296,516,,189,,144,116,117,137,123,74,218,174,213,271,366,368,445,445,291,293,319,329,361,393,176,424
76,12,41,25,76,25,26,143,133,306,255,274,283,401,387,344,360,314,329,217,262,183,197,36,56,285,198,83,68,160,161,384,397,293,296,512,505,449,325,337,308,334,389,186,326,49,79,93,119,44,91,163,186,179,283,384,395,454,459,340,345,304,291,393,274,254,180,21,43,227,135,35,16,216,138,274,259,317,277,483,446,298,280,288,298,519,,195,,152,137,117,114,199,82,242,171,219,279,364,360,437,442,290,293,306,333,365,384,190,419
77,10,39,29,73,22,23,141,134,305,254,275,280,401,387,341,351,316,327,218,260,187,201,37,52,250,181,76,63,169,168,386,392,291,293,506,503,461,324,350,313,349,405,181,286,53,81,92,117,50,80,164,182,181,281,390,389,449,452,345,341,297,289,393,269,252,180,22,39,235,140,34,12,221,147,269,273,315,276,479,444,301,279,289,299,521,,189,,151,145,155,143,134,65,230,165,213,285,367,361,432,446,288,293,314,334,365,374,176,426
78,13,34,26,67,20,24,139,133,305,257,275,283,403,386,338,349,315,327,222,261,190,198,35,46,193,198,67,66,181,170,388,388,289,291,517,498,458,320,340,313,322,369,177,260,46,84,91,121,64,102,162,180,180,282,382,386,453,458,343,346,296,270,393,265,252,179,24,39,232,144,29,14,221,134,269,277,314,277,475,438,300,278,291,292,525,,193,,152,121,141,154,97,92,222,156,218,284,363,357,434,445,289,295,317,327,375,374,177,427
79,16,35,26,67,16,27,141,131,304,257,276,280,404,386,335,350,312,321,219,262,185,199,33,53,187,174,71,71,151,161,390,380,290,296,494,494,444,320,349,317,311,382,179,257,45,79,89,117,53,81,189,177,177,281,388,387,459,451,338,341,308,280,391,275,254,181,32,42,225,148,29,18,222,138,272,282,312,274,477,441,298,275,287,294,524,,196,,147,103,137,186,117,71,196,170,217,272,365,362,441,446,289,294,311,325,363,372,180,401
80,22,33,23,75,14,29,139,131,303,256,279,281,404,387,334,353,312,320,224,262,184,196,32,47,204,145,80,86,169,167,389,400,292,296,528,492,441,320,342,324,344,377,179,269,47,73,86,117,65,114,173,195,177,280,385,393,457,456,336,351,295,292,399,269,255,180,27,44,222,146,36,17,216,136,270,285,314,273,478,436,299,281,279,303,525,,190,,155,115,139,178,109,81,194,177,217,272,364,361,441,440,288,294,317,339,376,369,171,421
81,22,41,24,78,18,28,141,134,303,258,271,279,405,385,334,351,311,321,223,261,189,197,32,49,201,149,82,81,165,149,388,390,294,299,551,479,443,320,350,317,348,384,177,260,45,69,103,115,53,98,158,139,177,284,389,392,454,454,338,344,290,278,402,264,255,177,28,42,234,155,38,19,213,131,273,281,315,271,479,438,300,280,287,296,528,,195,,159,122,144,162,167,92,207,173,214,269,363,363,434,448,285,297,324,326,367,368,176,428
82,22,37,25,80,19,24,138,131,302,257,273,279,405,384,337,351,310,324,223,260,188,196,34,56,201,138,83,86,176,147,379,388,295,304,494,485,438,318,339,321,345,381,175,255,45,66,88,119,58,94,149,147,176,282,392,390,462,456,336,343,294,290,407,267,255,177,23,46,242,157,33,20,223,130,274,282,310,274,471,441,296,276,281,298,527,,191,,161,123,139,160,105,89,204,171,219,267,361,366,439,446,286,295,317,320,364,372,172,406
83,20,38,27,76,18,19,137,130,303,257,272,280,405,384,340,350,309,323,225,261,193,192,39,46,205,112,83,64,165,147,378,400,295,301,509,482,440,319,364,332,326,357,164,259,47,64,92,107,54,80,153,141,177,280,390,394,466,448,338,335,297,281,409,263,254,177,22,41,247,150,44,24,223,131,275,283,307,272,458,437,295,279,282,304,525,,187,,154,142,130,175,86,89,196,174,216,267,353,366,432,453,286,294,327,317,364,370,173,408
84,21,37,30,78,17,20,140,129,306,254,271,278,406,384,345,348,308,320,226,260,192,194,37,41,222,110,108,111,155,152,378,408,298,296,508,474,444,315,344,321,334,367,181,259,46,62,94,120,60,85,148,144,181,282,382,391,469,452,343,339,292,279,409,265,243,178,25,42,235,141,41,16,223,130,279,285,314,273,460,440,297,282,291,302,526,,194,,140,113,120,151,109,87,220,169,212,270,361,369,436,447,282,293,327,326,369,367,172,420
85,19,37,35,72,17,25,142,133,312,257,275,278,406,383,348,348,306,318,228,260,193,188,36,39,161,125,77,94,164,148,376,385,299,295,501,479,448,317,338,322,326,355,170,253,41,64,99,120,51,94,144,148,177,280,390,393,464,450,340,338,292,276,414,267,240,178,22,42,236,134,36,15,225,128,279,283,312,276,456,440,291,277,285,302,520,,192,,130,114,126,181,90,86,193,158,214,271,356,369,443,445,283,293,323,327,377,361,175,415
86,16,36,36,73,15,24,137,132,312,255,274,278,408,382,352,355,308,318,229,259,187,188,33,45,151,165,87,70,157,154,374,418,299,300,523,472,432,313,350,316,339,416,168,266,45,61,85,116,47,110,137,143,175,281,388,395,460,452,339,338,293,274,416,265,239,174,25,41,245,136,35,12,227,131,274,282,308,279,452,442,291,280,293,299,524,,188,,170,112,107,176,120,77,188,172,219,269,354,371,434,451,283,295,315,322,370,362,175,411
87,21,36,34,72,17,24,137,131,316,255,274,279,408,384,354,355,305,314,224,258,190,189,32,43,151,124,95,75,159,151,386,400,298,300,498,437,441,313,344,316,344,407,194,285,47,65,86,111,48,83,138,153,182,284,385,398,456,451,341,337,292,271,410,272,239,173,25,45,247,141,33,17,222,125,272,284,309,281,447,444,292,282,300,295,520,,191,,177,120,132,155,98,75,202,167,219,268,353,372,445,444,283,294,315,321,364,360,175,401
88,21,35,27,72,18,22,136,130,318,260,272,280,409,382,355,364,304,316,226,258,188,187,30,47,163,126,83,95,163,146,389,392,299,299,563,437,438,320,344,327,329,389,189,256,51,66,83,114,45,78,141,143,182,283,385,402,459,458,339,341,305,275,411,273,238,170,24,45,242,128,28,17,202,125,272,286,305,278,446,448,291,282,299,306,523,,197,,154,127,129,199,76,68,215,172,220,274,352,376,441,439,285,294,312,319,362,367,179,401
89,21,34,24,73,20,20,136,129,321,257,272,280,409,380,357,366,301,318,223,257,193,192,31,73,236,125,78,110,158,144,399,403,299,293,513,457,451,326,337,317,322,394,174,260,46,63,90,123,52,76,141,139,184,284,382,409,456,451,343,343,306,299,412,269,242,169,22,45,241,126,40,20,208,126,278,284,305,280,455,450,292,280,299,305,523,,193,,161,126,124,167,88,75,211,170,215,276,354,371,443,438,288,295,316,324,353,368,171,410
90,20,37,27,70,20,20,136,130,320,255,272,277,409,380,360,367,304,317,221,258,185,183,27,109,197,103,67,89,159,135,400,390,300,293,507,474,464,324,340,317,331,392,196,286,48,61,92,122,42,92,134,147,178,284,389,409,457,447,344,337,311,281,406,269,240,171,18,47,246,128,30,16,232,128,279,284,306,284,445,446,293,279,298,300,524,,191,,142,135,126,177,148,76,184,165,218,273,346,375,445,436,289,293,312,324,361,371,177,405
91,16,38,33,67,18,21,138,130,321,254,272,275,409,379,357,373,302,313,224,258,184,188,29,124,205,96,85,105,144,150,393,401,298,292,505,462,464,328,332,323,334,353,189,256,48,62,104,126,46,79,148,151,172,281,382,411,458,443,345,345,313,283,409,268,240,167,22,39,231,127,30,12,215,129,273,288,302,281,445,447,291,281,306,294,529,,191,,136,131,133,189,151,73,205,183,217,275,346,371,441,440,293,293,314,325,364,366,172,422
92,20,35,53,69,16,27,142,128,323,255,270,277,409,378,360,371,301,310,225,255,181,188,30,131,202,124,85,91,156,139,398,392,297,290,490,444,465,324,323,312,316,370,182,253,50,63,104,122,44,81,142,153,178,284,375,413,456,446,344,348,303,272,407,270,241,165,21,39,227,131,35,13,210,132,275,287,304,279,437,445,288,281,293,297,530,,194,,145,135,139,165,111,87,194,201,211,280,344,374,444,442,294,293,314,325,361,368,174,415
93,23,38,54,75,14,27,139,129,324,254,270,278,409,377,358,371,299,313,221,256,185,187,32,118,186,103,90,95,151,137,394,395,303,291,492,449,460,326,324,312,316,370,188,256,49,64,90,119,44,77,162,145,181,288,379,417,452,440,348,345,307,281,405,273,240,168,22,43,225,139,28,15,219,127,275,285,306,282,442,449,288,279,293,296,540,,191,,167,137,118,180,96,102,193,195,215,280,352,375,436,442,295,292,308,329,367,378,178,398
94,22,41,54,78,16,26,138,128,324,254,271,275,409,377,358,369,297,312,219,255,183,181,29,122,177,130,88,74,157,150,402,394,296,292,496,453,464,334,328,324,341,381,183,260,45,64,88,117,39,68,161,144,192,291,383,416,452,446,349,347,304,276,409,278,238,166,24,41,230,147,27,17,218,138,271,282,307,284,449,451,289,282,289,298,546,,189,,159,132,105,160,106,88,199,215,216,281,344,373,444,437,295,292,308,331,362,374,176,400
95,23,44,55,80,17,23,140,129,322,256,271,276,408,376,361,370,298,306,222,254,184,189,32,130,143,157,125,101,150,139,403,406,299,298,493,464,461,328,327,318,322,385,193,337,46,61,94,116,49,65,151,150,193,287,372,418,448,447,348,350,308,284,407,272,241,166,22,54,230,137,31,20,213,136,272,291,314,284,443,451,283,283,291,298,554,,184,,151,123,119,168,99,91,207,206,220,282,353,371,438,442,296,292,311,322,369,376,182,400
96,24,41,57,76,18,21,138,130,322,259,270,275,407,375,361,369,299,307,220,254,181,191,32,108,187,145,76,100,148,149,404,397,301,295,472,467,471,334,329,334,338,373,183,293,45,58,91,112,50,65,156,145,196,287,376,420,446,442,352,346,302,292,405,275,240,163,21,43,230,148,32,21,211,131,274,285,307,281,439,453,282,284,297,294,560,,196,,187,145,131,166,96,95,212,213,215,286,353,367,441,451,295,292,309,322,372,369,180,395
97,20,39,62,67,19,21,142,130,320,262,269,275,408,375,356,375,302,305,222,253,186,190,33,162,196,145,90,84,162,153,415,390,299,297,483,461,446,333,335,327,324,376,187,296,42,58,87,117,53,61,158,147,196,290,373,426,452,438,354,349,298,279,402,272,241,161,18,45,234,134,41,18,208,127,272,277,305,282,443,451,285,284,294,297,563,,192,,153,127,111,189,111,93,213,216,213,283,352,371,442,447,298,294,312,326,373,377,182,393
98,21,36,61,72,17,22,137,130,318,263,271,276,408,374,356,371,299,305,222,253,182,189,39,153,207,133,103,75,154,152,403,390,299,296,509,459,449,333,330,324,332,375,233,289,43,56,88,117,42,62,164,146,192,289,385,421,447,441,353,349,306,282,401,272,239,162,20,41,248,135,33,16,200,130,273,279,309,278,448,451,285,284,284,289,566,,186,,155,113,121,192,96,87,209,208,219,284,354,370,444,450,301,292,310,328,374,386,176,401
99,20,39,59,73,12,24,140,129,321,269,268,277,407,373,354,370,300,311,224,251,185,191,38,165,183,131,88,77,143,151,401,387,303,301,522,466,451,327,336,328,330,373,194,276,39,57,93,113,37,66,148,153,194,293,386,418,455,444,352,349,301,283,395,274,240,175,23,42,241,130,36,11,209,127,275,281,309,280,441,453,288,286,283,293,566,,188,,139,127,128,188,131,134,190,227,217,288,360,365,445,443,298,295,327,342,369,382,172,399
100,22,42,51,75,14,25,139,129,321,272,269,274,405,372,352,368,300,309,221,251,182,189,39,154,204,116,94,73,156,164,408,395,303,302,521,467,454,333,322,322,340,370,182,271,46,68,86,117,39,83,158,153,184,296,392,421,462,440,352,348,300,284,397,273,240,180,21,37,237,131,32,15,201,131,272,281,318,278,445,450,288,282,296,295,565,,186,,159,131,112,173,123,104,187,226,212,289,357,363,445,440,298,298,318,326,370,380,177,400
101,22,41,51,74,20,23,146,129,320,275,269,273,406,372,350,369,299,311,221,251,180,183,63,138,245,124,73,90,153,158,405,390,306,303,519,474,456,337,346,322,338,378,199,246,48,66,90,119,54,84,141,147,185,293,392,422,466,443,355,348,297,277,394,273,238,178,21,44,239,129,30,19,202,132,269,281,317,275,445,454,286,284,293,298,564,,181,,181,126,108,181,139,125,199,242,214,287,362,363,444,450,297,300,325,329,372,381,186,400
102,24,38,55,66,19,24,144,130,320,276,269,275,405,371,349,366,301,312,219,251,182,179,99,132,190,112,85,80,149,153,408,402,301,306,537,483,454,336,341,317,326,373,201,244,43,67,93,127,39,65,153,155,183,295,395,423,472,453,353,352,306,293,394,271,238,178,23,43,248,138,27,22,198,134,273,279,318,275,450,455,290,280,286,300,565,,177,,143,125,125,145,133,93,205,220,212,286,361,370,441,444,297,300,327,328,364,379,176,401
103,22,34,59,66,20,20,143,129,319,277,268,272,405,372,345,368,301,316,219,252,181,176,92,140,231,133,130,90,152,154,402,399,304,309,497,470,466,329,334,320,324,381,199,248,42,57,96,116,46,61,171,161,183,298,399,425,472,450,352,352,290,288,394,273,240,181,19,45,243,129,27,29,201,131,269,278,315,279,455,458,289,284,277,305,563,,175,,148,111,138,169,98,78,224,231,220,287,359,371,441,441,295,301,330,328,358,377,175,412
104,18,34,58,70,17,21,142,131,319,274,266,274,404,377,340,368,303,314,216,250,184,178,111,140,220,110,111,68,148,157,404,402,302,312,510,476,460,328,334,321,324,381,192,282,41,67,98,123,39,57,155,152,187,297,404,418,480,445,349,355,300,285,395,272,240,179,22,43,249,128,32,31,200,131,269,279,316,282,466,454,289,287,280,308,563,,177,,162,116,121,172,109,117,226,229,211,281,358,369,443,444,297,304,330,337,362,378,179,404
105,20,35,53,73,15,24,139,131,325,272,271,273,403,381,341,364,304,316,217,251,182,181,120,129,229,108,95,65,146,138,401,397,301,312,509,472,454,333,337,322,363,368,185,257,37,68,90,130,47,50,147,157,185,294,401,429,479,437,351,346,294,277,395,274,241,178,22,37,237,118,32,29,203,132,270,276,310,283,448,457,291,284,283,303,565,,182,,185,120,153,196,125,108,201,217,210,283,360,368,448,443,296,305,341,334,367,370,169,399
106,18,37,50,77,13,28,139,133,328,282,267,272,403,379,339,364,305,311,217,251,178,182,124,129,208,115,87,73,146,147,400,397,302,311,535,473,466,327,340,324,349,379,193,262,42,61,86,129,42,62,167,155,187,299,403,423,482,440,347,352,303,285,394,270,239,181,25,43,253,122,35,35,199,133,272,276,308,281,452,461,291,287,275,307,565,,174,,160,123,129,186,95,150,207,220,214,281,360,372,450,448,302,304,337,329,385,369,174,410
107,23,38,52,76,13,26,141,130,326,276,270,274,402,377,341,363,303,314,215,252,188,178,118,118,180,100,73,75,153,146,401,397,306,312,515,472,449,326,334,327,339,385,195,247,47,65,97,119,52,61,156,159,190,299,403,419,477,444,353,347,300,296,398,271,238,178,25,45,257,124,28,37,212,132,271,274,308,288,447,453,292,283,282,309,565,,175,,175,137,131,163,100,124,187,219,218,282,361,372,444,447,300,304,323,327,376,377,187,406
108,24,36,53,72,18,23,138,131,324,275,272,271,401,378,339,366,307,316,215,254,180,179,123,124,215,104,90,90,162,143,403,390,309,313,496,471,451,329,319,324,334,375,205,310,50,62,91,120,66,62,150,159,192,300,390,423,479,448,358,345,300,289,401,272,234,178,24,46,248,126,29,44,207,129,271,272,310,289,456,457,291,284,283,309,560,,170,,131,105,109,168,123,102,177,221,226,284,354,377,443,454,300,302,329,326,357,381,183,393
109,23,42,56,73,18,23,141,132,324,273,268,272,401,379,337,362,308,313,216,253,185,183,100,111,211,108,72,78,162,147,399,384,307,312,509,475,448,329,329,328,326,415,178,258,51,67,88,115,52,59,144,155,195,297,396,417,473,446,365,345,307,292,398,275,234,180,24,46,239,127,22,39,204,134,274,272,305,289,446,457,289,285,280,310,560,,172,,123,127,116,171,88,106,186,214,222,283,360,376,434,457,301,305,321,322,347,386,177,397
110,21,37,56,71,18,25,138,132,322,274,266,271,400,380,337,358,307,318,217,254,190,181,112,150,221,105,90,77,161,137,400,391,313,311,486,474,440,329,341,326,307,393,186,280,47,69,90,123,58,68,149,156,192,298,395,419,474,445,371,343,299,298,403,278,234,181,23,47,238,131,26,35,209,132,275,271,303,286,447,454,293,283,282,307,560,,179,,140,111,112,204,106,80,203,203,227,277,359,383,459,452,300,303,323,320,341,393,175,402
111,17,35,57,73,16,23,137,132,323,264,268,270,400,382,340,361,304,318,215,256,182,181,111,121,224,98,77,68,166,138,395,393,307,312,497,476,439,324,349,316,335,391,206,272,47,59,90,120,49,81,157,159,198,297,393,417,478,448,373,342,294,280,402,283,235,179,22,46,241,127,26,34,210,128,274,269,307,288,441,457,293,285,284,307,558,,180,,130,105,102,188,91,94,196,197,224,278,359,382,446,452,299,303,324,327,334,392,165,403
112,18,35,56,75,16,24,140,132,323,270,268,271,399,384,341,360,304,318,217,256,187,182,123,145,197,94,70,88,160,147,401,390,308,308,513,475,442,332,337,326,336,370,228,260,43,59,93,113,47,73,153,155,197,301,402,414,483,449,373,337,298,287,405,289,237,178,23,40,258,128,29,26,206,123,273,272,310,283,440,451,297,280,288,302,558,,178,,146,91,131,163,95,103,195,197,230,279,359,382,435,451,300,303,327,325,336,389,166,402
113,20,37,55,75,16,24,136,133,322,275,270,270,398,386,343,360,301,318,218,256,183,177,127,138,221,111,83,80,167,149,392,405,308,304,547,480,454,326,338,322,321,373,214,275,45,57,94,115,63,71,144,154,196,298,396,414,479,453,374,340,302,291,407,289,238,182,22,38,258,122,28,33,208,128,267,268,315,282,438,454,302,285,290,304,556,,173,,140,88,124,169,115,111,205,194,234,276,361,380,443,449,299,302,315,323,338,398,166,411
114,22,42,49,68,20,25,138,132,322,266,272,271,398,388,343,367,302,317,218,257,189,176,115,152,214,113,72,68,159,144,393,395,314,303,523,483,450,326,341,313,334,387,209,249,47,63,86,117,59,64,144,145,198,297,403,413,475,452,374,337,301,277,404,291,239,179,25,42,260,125,25,25,211,136,266,269,315,284,438,446,300,284,291,314,553,,176,,149,129,108,189,116,119,186,224,234,281,364,378,435,452,297,302,319,321,335,396,158,413
115,23,38,49,68,22,19,139,132,321,270,271,269,397,388,341,367,300,315,218,256,189,216,163,149,178,109,62,77,163,149,403,402,313,308,565,482,447,325,338,319,322,418,224,267,47,65,91,121,44,73,158,153,199,299,392,408,477,452,374,337,296,286,405,289,240,179,23,40,261,131,28,25,215,132,269,269,315,278,438,445,298,281,296,305,551,,170,,128,108,151,159,127,101,236,196,232,278,362,378,432,454,296,303,315,328,340,398,159,396
116,24,34,56,71,24,22,137,132,320,261,273,270,398,391,342,367,296,316,218,258,180,273,149,170,150,106,57,67,158,143,399,402,316,303,560,480,448,325,344,318,343,370,220,270,50,67,92,121,43,91,154,153,197,296,390,403,475,451,373,341,300,275,406,293,243,179,24,48,251,129,27,21,209,135,275,267,319,278,435,445,295,282,301,305,547,,167,,163,99,127,173,116,89,190,190,232,279,365,380,421,448,293,302,327,332,343,395,165,417
117,19,32,57,74,19,24,141,132,318,277,275,271,398,398,340,368,297,317,218,257,179,203,144,204,161,99,63,73,161,147,392,408,310,304,538,486,450,327,334,316,344,363,216,254,49,65,97,117,38,89,144,144,197,299,384,402,467,451,376,338,303,286,405,289,244,180,23,41,262,123,24,21,210,130,268,268,318,278,434,445,302,282,300,306,553,,175,,130,124,146,132,98,109,176,190,226,281,368,380,418,445,296,301,318,331,340,395,163,419
118,19,36,57,77,15,23,138,132,320,278,275,277,398,398,340,368,298,317,221,258,184,189,134,159,142,102,68,64,173,146,389,413,308,302,546,491,453,330,334,316,342,363,226,263,53,73,93,126,54,84,144,150,200,299,386,400,466,439,374,338,293,288,402,291,245,176,23,41,260,121,25,20,216,137,270,268,320,280,432,445,304,276,299,303,552,,173,,197,132,139,151,100,76,178,185,224,277,375,376,406,444,295,299,313,335,341,388,170,401
119,19,40,52,77,15,28,140,132,320,255,273,285,399,400,342,366,299,315,222,259,183,174,151,198,165,85,58,78,166,160,404,414,312,300,525,491,447,325,327,315,347,345,223,254,45,65,91,128,47,81,159,153,202,299,386,400,470,433,375,344,299,285,404,291,244,169,28,42,249,122,29,25,209,128,273,270,318,275,431,441,305,279,293,305,553,,172,,188,116,128,154,106,62,205,183,224,280,380,379,398,451,295,298,321,335,344,393,159,407
120,23,41,51,80,17,30,140,132,319,260,272,284,400,398,342,370,302,312,218,260,187,161,135,206,155,98,67,69,168,137,404,406,311,303,526,487,445,327,340,318,342,344,205,257,48,59,94,128,53,88,164,150,203,297,387,401,464,426,378,349,299,279,400,292,241,170,28,44,243,118,21,19,209,128,269,274,319,277,434,441,303,280,293,299,558,,174,,147,99,112,144,104,55,210,191,228,274,373,374,403,451,294,299,310,340,342,383,164,411
121,23,39,53,77,15,25,143,132,319,253,272,287,402,397,340,368,305,310,219,259,183,177,153,189,154,88,55,83,159,141,402,396,314,299,526,484,436,330,332,322,353,344,237,256,40,56,94,126,51,65,158,155,212,294,384,401,456,421,380,356,304,279,401,298,231,168,26,43,248,113,28,18,218,131,269,267,322,276,434,440,304,284,294,300,555,,172,,145,121,108,154,113,52,193,190,226,275,373,379,401,456,294,298,311,341,344,401,153,421
122,24,39,57,73,19,19,140,131,322,261,274,287,405,397,339,371,307,310,219,259,182,181,139,193,167,100,52,78,168,134,390,424,310,299,555,486,445,321,327,333,327,339,249,250,50,46,89,120,49,79,150,146,203,295,381,405,455,417,382,351,294,279,399,291,231,167,23,43,247,119,23,23,221,129,272,269,317,276,429,442,301,286,291,300,560,,169,,152,132,109,162,101,63,210,193,222,272,372,374,404,464,291,297,313,350,345,393,166,410
123,25,39,59,70,16,21,139,131,326,256,274,288,407,397,338,368,312,309,219,259,184,175,155,160,139,90,51,62,173,140,395,413,309,299,552,493,459,329,325,326,342,342,251,271,50,44,89,112,52,71,153,146,199,294,386,399,455,413,384,359,307,278,398,294,232,168,22,49,240,133,24,26,220,134,277,267,315,275,431,443,303,287,291,294,562,,173,,174,131,109,145,84,70,224,203,225,273,370,375,407,458,289,298,304,343,347,391,170,419
124,22,35,59,72,15,24,138,132,325,258,275,290,408,398,337,368,312,311,215,259,185,174,164,159,204,93,51,72,155,131,390,413,312,297,548,493,452,335,336,327,346,343,234,287,50,38,85,116,54,112,145,148,199,296,385,404,451,412,383,352,299,293,399,296,235,164,23,51,255,128,21,22,225,134,274,267,315,275,431,442,304,286,290,295,565,,172,,168,138,105,177,120,75,236,202,226,270,370,372,396,469,287,298,315,339,347,385,160,395
125,20,37,62,77,13,25,137,132,325,266,273,290,408,399,336,367,314,314,212,258,182,173,196,173,175,87,58,87,159,142,392,417,309,295,516,496,456,350,342,328,339,343,200,239,47,84,92,116,52,77,146,146,203,294,389,401,454,412,385,361,295,276,398,293,240,161,23,44,256,131,23,23,222,130,270,269,318,270,431,444,305,288,292,294,570,,170,,184,138,104,157,122,72,216,184,221,277,366,371,402,465,289,298,311,340,348,387,160,411
126,19,37,59,75,14,23,134,131,325,275,274,290,411,399,337,367,313,316,216,258,185,176,133,186,199,100,82,73,169,145,400,424,310,296,510,492,453,350,372,328,326,340,196,235,48,94,87,114,55,74,159,145,202,295,391,403,453,412,386,366,294,291,396,292,266,158,24,48,248,125,24,21,217,130,269,271,311,271,427,447,302,287,293,293,571,,170,,204,172,102,136,111,80,189,263,227,274,368,371,398,470,289,300,316,339,346,388,162,411
127,19,38,55,70,15,26,132,132,325,289,276,290,412,399,337,367,312,320,216,258,181,175,147,196,226,89,64,66,173,148,399,412,308,296,536,492,457,337,413,325,331,342,203,272,40,140,86,114,59,67,154,141,204,297,400,399,457,413,388,368,301,282,404,293,274,157,24,47,252,130,26,21,222,130,271,271,309,272,434,447,304,292,291,298,570,,175,,155,202,96,145,140,106,177,268,222,274,369,374,399,472,290,300,303,339,348,404,181,414
128,22,34,53,66,22,23,141,131,329,276,274,292,411,399,340,366,312,323,215,258,180,173,151,216,209,85,83,58,165,154,391,404,314,297,529,487,448,335,380,327,322,346,211,234,41,149,81,112,45,74,151,151,207,298,409,399,457,410,387,374,298,304,408,293,367,154,26,48,263,127,32,23,291,127,270,271,312,274,431,450,302,295,290,297,574,,172,,173,215,87,122,108,107,199,227,223,276,370,369,401,476,292,300,307,340,347,388,206,406
129,23,35,55,72,23,21,156,132,323,265,273,292,413,399,344,363,310,325,215,256,183,173,136,157,199,91,56,62,161,167,392,413,311,296,539,483,456,338,377,320,339,346,207,230,40,159,94,114,55,82,142,160,207,299,395,407,460,407,385,372,314,285,410,294,486,154,23,50,268,129,28,20,318,128,271,269,310,276,431,455,301,294,293,295,578,,168,,166,220,81,100,92,104,190,256,223,271,367,365,400,477,301,300,316,339,346,370,208,404
130,22,34,60,79,19,22,186,133,329,293,276,291,415,399,348,362,306,324,215,257,185,174,136,175,228,86,57,83,160,167,393,429,308,294,551,476,451,345,364,317,316,345,214,224,53,133,98,118,55,64,161,155,208,297,406,403,457,407,382,378,316,279,414,291,449,154,20,49,264,126,30,31,346,131,270,274,308,275,438,460,300,294,294,285,578,,169,,161,128,82,117,112,92,177,214,227,270,364,367,397,474,288,299,314,337,342,357,208,421
131,19,36,58,81,18,22,265,133,335,276,276,291,416,398,353,363,308,323,212,256,181,173,119,194,236,112,52,80,157,169,389,428,314,297,548,484,450,335,374,316,315,346,200,239,65,152,95,126,100,68,155,145,224,297,407,407,458,411,379,374,313,285,419,289,443,156,25,48,254,122,29,26,313,127,269,271,307,268,441,461,300,297,298,291,578,,168,,180,74,85,123,104,96,168,222,223,283,365,358,400,475,286,298,324,341,344,347,207,421
132,20,39,58,79,12,26,309,133,332,265,277,292,421,398,356,361,309,326,212,256,190,174,135,229,219,89,59,81,147,195,390,425,336,295,537,485,447,336,353,320,296,343,213,224,95,130,99,127,136,60,162,149,228,298,422,407,458,415,379,377,316,290,420,292,504,155,25,45,248,131,27,25,311,131,267,274,307,281,442,461,301,296,300,291,573,,169,,152,72,88,150,119,96,176,235,221,271,369,363,400,478,292,298,315,342,341,356,204,402
133,23,42,51,74,13,24,285,133,331,292,278,291,429,398,354,354,310,329,215,255,188,174,138,197,255,89,52,74,153,194,386,430,320,293,535,490,451,337,340,317,295,343,211,227,145,116,94,128,341,54,150,139,228,298,440,414,456,418,377,374,315,279,417,292,399,156,26,43,257,119,27,22,299,133,265,272,308,284,447,465,301,297,300,292,575,,173,,133,72,88,146,145,94,173,212,225,276,367,356,399,475,293,296,313,335,342,351,205,397
134,25,38,54,74,14,25,263,133,334,282,276,292,437,398,354,358,308,325,216,256,188,173,117,172,191,78,71,89,157,173,387,413,312,289,543,490,445,331,341,313,295,343,214,199,126,118,86,127,300,45,143,143,229,293,428,408,454,423,379,368,310,274,420,285,332,159,27,41,261,118,28,19,294,129,270,272,305,293,447,468,300,293,305,299,572,,172,,103,56,90,133,107,84,191,197,223,271,365,366,390,470,297,295,303,335,344,351,199,387
135,26,36,55,72,16,26,235,135,335,270,277,292,446,398,355,360,307,325,218,254,186,171,121,181,183,77,69,76,153,246,390,434,305,289,522,488,441,337,347,322,290,344,216,248,142,114,80,136,204,54,145,153,228,296,431,405,454,426,375,375,308,295,419,284,308,167,28,42,241,112,26,20,282,131,268,278,307,324,453,469,296,293,298,298,574,,170,,86,51,93,148,85,90,195,192,222,274,363,363,392,478,293,294,313,338,346,352,198,398
136,23,33,59,75,19,25,212,145,335,272,276,293,455,399,357,361,303,323,218,254,179,176,117,144,171,96,72,87,155,202,394,411,307,290,537,485,450,335,337,307,290,344,204,265,220,111,86,121,148,59,143,148,229,296,431,407,453,430,374,373,311,283,418,287,285,203,25,51,239,128,27,26,265,133,268,271,306,330,449,471,296,293,302,298,570,,170,,42,44,98,168,88,82,179,184,224,269,362,365,393,478,296,295,322,338,351,355,198,404
137,25,37,62,73,19,31,204,144,331,262,277,292,468,399,354,366,305,324,222,255,189,177,118,142,212,92,56,88,159,207,389,408,287,289,529,485,455,327,347,311,292,342,212,241,251,118,90,130,125,55,142,147,232,298,422,407,453,433,373,370,310,279,420,290,278,198,23,52,246,121,24,29,271,130,268,270,309,328,454,476,294,293,299,300,572,,177,,24,52,97,144,83,87,171,178,225,274,363,362,387,463,291,296,332,334,354,351,196,421
138,22,39,60,71,17,31,203,139,324,271,278,293,477,399,352,371,303,323,219,257,185,177,136,159,206,97,51,90,152,178,395,410,288,290,496,483,457,328,336,308,289,340,204,213,274,93,85,116,122,72,143,141,233,293,410,409,456,432,377,371,313,338,418,288,284,297,20,59,250,125,20,29,280,132,268,271,306,330,455,475,292,292,299,302,568,,177,,18,51,95,178,109,92,197,185,222,272,361,364,389,452,299,295,310,330,358,354,196,409
139,20,40,60,72,19,26,190,138,324,275,276,292,490,400,351,373,296,322,225,259,187,175,170,150,233,97,49,83,158,170,398,411,280,282,489,478,458,332,333,307,289,340,197,196,260,88,89,123,88,64,153,141,232,296,425,412,450,434,373,373,316,510,418,292,286,269,24,61,243,121,22,23,271,125,270,272,310,330,456,475,288,293,296,296,583,,177,,20,47,96,141,129,98,197,207,222,275,356,368,389,440,295,294,316,325,359,362,196,394
140,20,36,55,71,23,25,171,138,325,284,276,294,644,405,355,379,302,319,222,260,183,175,122,148,195,114,46,74,175,189,393,410,275,279,517,481,456,328,336,309,291,336,201,258,294,82,89,124,116,69,144,149,227,293,427,415,448,435,375,375,315,541,416,291,293,304,23,46,235,124,26,22,273,129,268,266,310,328,458,473,288,294,302,297,587,,175,,21,47,97,136,98,105,194,194,225,270,358,369,387,432,292,295,314,323,357,358,192,415
141,20,33,54,72,24,25,171,135,320,278,278,294,690,407,353,377,373,316,222,261,187,175,120,160,166,109,43,79,161,182,393,405,279,278,526,485,454,330,326,307,292,335,198,250,275,72,85,117,109,64,142,148,222,297,432,407,455,436,376,374,314,387,414,293,289,467,24,61,259,114,23,21,275,127,269,269,309,335,461,476,292,294,300,306,511,,169,,19,47,94,128,110,104,221,186,222,271,361,368,392,434,298,293,315,333,360,361,194,411
142,23,34,54,74,25,27,175,134,324,280,277,294,576,410,350,378,533,318,234,263,187,175,127,176,184,86,43,75,156,173,394,400,274,279,498,479,455,327,333,311,296,336,205,239,259,95,87,122,84,53,152,143,221,292,424,416,462,436,375,374,318,383,413,292,290,570,21,65,256,122,26,25,284,130,270,273,308,329,452,474,290,293,299,307,460,,170,,14,41,89,153,138,100,196,187,226,274,361,374,393,432,299,295,320,329,362,362,192,414
143,23,36,60,80,27,31,199,135,320,276,277,296,590,412,351,377,555,318,275,264,185,175,130,153,156,83,39,66,142,171,386,399,272,277,530,481,472,326,330,306,299,335,194,217,269,87,87,122,82,60,148,145,221,291,414,409,457,434,375,372,319,347,411,292,281,572,20,77,255,113,32,22,275,136,268,272,312,326,457,474,299,290,328,303,466,,175,,16,41,86,142,159,94,204,169,220,272,360,377,391,427,303,292,341,320,357,362,190,404
144,22,38,61,81,25,44,189,132,320,275,277,295,560,413,349,376,689,314,269,266,185,176,114,138,179,91,39,77,134,152,395,417,268,279,508,481,465,324,327,298,298,333,180,241,214,77,85,121,82,63,152,146,224,291,414,408,442,433,376,372,309,338,411,295,276,540,20,112,250,122,31,25,273,137,267,272,313,328,458,471,298,290,342,302,476,,173,,16,37,85,147,97,95,184,165,221,272,355,374,391,431,298,291,346,322,353,362,198,400
145,21,36,58,80,31,47,179,132,326,278,277,294,549,406,349,358,593,315,295,267,188,176,124,161,223,97,40,84,127,165,391,402,272,278,497,478,475,325,329,305,304,335,184,242,244,63,88,116,82,59,151,143,222,293,399,407,442,434,374,374,309,325,410,297,278,436,22,256,255,129,29,33,280,129,267,271,309,334,457,468,303,293,332,300,480,,175,,19,41,85,120,109,93,205,168,217,271,354,376,387,429,299,292,326,322,353,363,191,402
146,19,39,56,72,35,81,172,132,324,292,277,295,537,403,348,427,596,387,393,268,181,180,146,170,205,85,40,79,134,161,388,390,275,280,512,485,467,329,319,312,303,338,184,221,293,81,93,121,73,65,145,149,225,293,392,409,447,434,374,369,303,324,405,298,287,377,24,285,264,125,25,22,282,127,269,271,312,333,456,471,301,296,318,301,481,,171,,18,37,85,155,91,89,172,168,218,276,355,373,387,425,300,292,325,323,357,361,190,396
147,20,35,51,71,45,121,156,133,330,292,278,295,496,402,345,433,515,623,364,268,190,180,155,200,168,93,42,98,121,145,395,395,273,278,511,486,464,330,322,310,302,342,185,263,237,70,90,129,61,63,145,146,224,291,393,404,449,432,376,366,306,312,407,301,279,362,29,281,255,121,24,20,284,125,266,271,315,338,456,471,299,301,320,297,483,,177,,19,44,88,145,135,89,171,153,217,289,357,370,390,424,302,292,317,327,356,356,192,386
148,23,34,57,75,57,143,164,134,329,274,277,296,556,401,343,417,471,750,403,269,186,177,158,215,148,87,45,123,116,141,395,394,279,276,518,482,464,326,331,322,305,347,177,245,212,69,100,134,66,65,156,142,226,291,395,407,446,432,375,366,305,326,401,301,265,373,26,302,255,113,25,21,283,130,269,270,312,339,455,470,298,347,286,300,487,,173,,18,43,92,135,114,88,162,154,217,291,355,373,390,418,300,292,316,317,352,365,184,382
149,25,36,59,78,61,153,164,134,334,263,273,294,506,402,339,389,484,866,590,268,190,178,156,218,170,95,41,108,123,135,399,396,276,280,524,482,462,331,320,308,304,350,189,256,213,67,88,130,57,61,151,145,232,289,400,397,444,432,374,367,303,318,406,298,269,384,28,257,251,121,24,22,289,135,265,270,310,344,450,471,296,351,287,300,491,,173,,17,46,96,141,121,85,170,152,217,288,345,389,390,418,302,292,310,319,351,359,189,396
150,23,65,64,74,57,121,157,133,340,280,276,294,519,407,340,383,436,765,548,268,185,179,172,261,176,103,34,79,123,138,387,395,279,279,509,487,474,335,329,318,305,353,181,233,206,66,85,137,66,75,154,149,228,291,399,403,443,431,374,371,303,313,400,301,275,319,23,210,251,113,19,23,288,136,269,273,307,349,452,462,299,337,280,303,485,,175,,17,38,97,164,123,84,157,150,223,284,355,402,389,416,300,292,319,318,350,356,189,382
151,21,60,61,68,59,108,177,131,339,259,275,295,550,430,341,371,441,715,589,267,185,177,177,247,160,116,28,76,117,167,395,395,287,280,525,487,466,343,324,327,307,353,175,268,183,62,82,125,62,55,158,149,228,291,401,399,439,431,373,372,298,312,398,298,270,315,22,189,256,124,22,26,290,131,270,274,307,352,421,464,296,334,283,295,482,,178,,17,36,96,158,110,95,150,158,219,287,353,389,391,413,298,293,313,323,347,355,191,398
152,17,66,62,72,57,110,164,133,341,280,275,296,529,431,343,368,426,690,499,266,181,177,162,254,161,94,32,102,114,149,392,392,284,283,523,486,464,345,330,328,305,353,178,250,187,74,82,121,60,55,166,148,224,293,405,398,438,432,372,370,302,300,398,298,272,280,27,213,254,119,22,22,286,135,267,284,306,355,445,464,299,339,284,294,484,,178,,17,38,102,148,89,98,144,164,223,287,361,373,391,414,299,294,314,327,346,354,184,411
153,16,71,61,71,82,91,212,133,347,275,278,292,536,432,343,373,395,664,445,265,189,176,152,214,152,94,36,94,118,150,392,394,282,280,512,485,466,346,322,312,308,353,177,253,153,83,83,124,55,56,165,138,226,287,404,395,438,430,374,370,308,299,398,302,276,292,30,240,241,134,21,18,291,138,264,290,305,353,460,459,297,359,271,297,489,,180,,18,39,98,150,81,101,138,165,219,288,359,366,390,412,294,294,320,327,346,354,186,404
154,20,108,55,76,84,91,241,131,344,265,276,292,537,434,345,372,577,528,419,266,186,175,134,194,156,93,37,75,116,165,392,398,285,282,500,479,470,345,322,315,308,352,184,251,173,76,74,117,68,55,161,132,226,291,409,392,436,430,372,369,304,297,400,296,277,284,30,183,245,130,23,30,287,137,267,293,303,349,460,453,298,374,277,296,486,,171,,21,42,97,136,82,103,139,168,220,285,360,369,387,413,294,293,308,357,347,356,181,385
155,22,134,54,81,80,89,212,132,345,254,276,288,507,437,345,374,584,515,413,267,183,173,146,114,146,84,32,110,115,154,386,397,285,280,510,484,471,346,323,319,305,351,179,224,184,75,67,116,66,52,161,146,224,285,407,408,433,427,372,376,302,317,400,303,295,285,27,196,246,128,23,24,289,133,269,299,304,353,465,454,303,380,275,293,481,,172,,19,42,93,134,72,107,137,180,222,284,365,375,395,413,292,293,317,337,342,358,182,404
156,24,122,57,79,75,102,195,132,340,274,276,297,493,437,345,376,537,433,384,266,185,177,147,106,150,80,30,72,112,146,386,398,287,283,481,483,464,347,331,312,305,352,178,261,173,82,70,117,56,61,157,150,223,292,407,417,433,426,372,374,304,318,403,298,298,273,23,158,239,115,25,19,277,128,269,305,305,349,453,454,306,382,274,288,478,,170,,21,40,91,148,73,97,148,172,224,280,357,370,396,411,290,294,326,348,340,364,182,411
157,22,124,63,77,74,92,279,132,346,279,276,292,506,436,347,367,534,469,377,264,185,177,172,74,148,82,37,73,111,132,380,391,288,282,472,485,459,344,324,310,304,352,169,224,182,84,87,119,59,57,144,143,225,289,410,417,436,426,374,378,306,301,404,299,280,268,26,140,255,122,26,16,281,128,267,302,309,351,453,459,328,380,282,296,478,,170,,19,36,93,153,95,95,136,162,229,284,360,372,396,413,294,291,329,350,342,369,182,393
158,19,99,59,75,71,98,249,136,344,288,274,304,495,436,348,364,481,463,391,263,186,177,147,86,134,89,31,70,109,139,382,393,282,285,486,485,457,346,327,308,304,350,179,250,165,79,122,116,54,49,142,145,225,288,412,427,437,426,374,379,303,288,405,297,289,256,26,160,261,130,28,43,269,126,265,302,313,356,465,461,334,378,272,307,477,,169,,17,35,87,156,101,95,136,152,227,282,345,360,400,413,289,293,319,323,344,373,176,390
159,18,105,58,72,98,108,210,141,361,268,275,301,472,436,348,368,442,398,367,264,178,178,134,76,142,96,30,71,113,120,387,387,291,286,497,489,449,342,336,307,304,348,172,249,155,72,125,125,45,60,141,147,222,288,414,433,442,426,373,377,300,301,406,295,260,260,34,147,260,118,39,37,271,136,263,300,318,355,452,451,340,384,274,392,470,,171,,17,30,82,162,102,96,138,160,228,282,355,362,396,410,292,289,319,326,346,374,180,398
160,21,105,52,75,97,100,231,134,369,304,274,287,490,431,347,371,471,396,387,264,187,175,135,65,166,100,35,56,112,119,386,393,294,284,501,489,456,339,338,305,304,349,169,232,161,59,194,122,50,56,143,140,226,289,413,426,450,423,370,380,298,279,406,301,284,278,32,139,249,118,40,36,263,135,264,305,316,356,434,450,358,386,284,412,471,,172,,19,38,81,186,89,93,139,157,225,284,354,361,398,411,294,286,327,334,345,373,182,394
161,23,98,53,74,81,109,208,132,380,290,274,293,477,429,348,367,390,433,367,263,184,175,150,66,178,101,38,50,110,128,392,386,286,289,508,489,446,343,330,312,303,344,182,216,158,63,286,120,55,59,144,137,228,292,412,430,458,423,372,382,372,282,405,300,258,286,33,140,255,121,46,36,268,138,260,300,319,356,437,439,373,391,283,353,471,,168,,17,46,86,147,86,85,136,157,227,285,346,364,403,412,295,283,321,330,347,377,178,415
162,23,115,60,77,84,100,224,131,335,298,272,289,468,430,351,366,412,417,432,264,180,177,122,67,159,96,37,54,109,117,395,391,284,288,515,488,454,341,330,318,300,344,172,214,117,66,224,122,58,49,149,144,229,292,405,429,459,422,370,379,461,276,410,306,271,270,38,142,256,110,40,31,275,135,264,299,320,354,446,443,376,392,273,306,469,,168,,14,44,90,214,79,87,143,158,227,285,359,363,408,412,293,282,325,323,346,374,178,403
163,25,102,65,74,123,96,224,132,389,287,274,292,469,428,351,366,369,431,397,264,182,177,128,61,113,88,36,46,112,119,394,389,291,285,506,487,452,342,328,314,303,346,179,210,118,66,216,129,53,70,152,141,232,294,410,426,462,421,372,378,463,288,409,312,274,263,36,129,251,116,45,36,266,133,271,303,313,356,454,434,383,389,272,302,465,,165,,17,42,94,162,116,88,144,161,228,290,355,373,410,413,297,280,316,330,348,377,176,408
164,23,104,66,73,120,117,264,149,368,286,286,291,484,427,350,377,380,427,341,264,186,196,115,66,84,102,37,40,113,115,399,391,296,284,507,485,441,341,331,320,303,344,182,204,112,70,248,131,52,95,147,145,230,293,413,423,469,421,371,380,387,283,407,312,246,252,34,137,250,116,41,34,262,129,288,305,381,353,451,442,380,391,285,309,462,,173,,18,40,95,155,117,89,139,166,227,290,345,372,410,412,298,281,319,329,349,374,171,408
165,20,95,64,76,133,111,268,152,354,311,287,300,478,426,348,375,382,411,387,275,179,236,121,67,90,96,32,31,115,118,394,396,289,287,506,482,443,342,326,318,302,341,175,195,116,65,228,120,54,97,148,144,227,299,407,421,473,421,372,382,340,286,406,317,256,254,32,132,245,118,38,42,266,131,285,305,345,357,444,437,383,390,268,296,464,,170,,18,46,100,162,112,88,139,167,230,290,343,374,413,416,299,280,318,331,353,374,174,402
166,21,103,60,82,130,111,232,156,345,294,296,317,467,426,346,375,384,430,418,333,190,241,146,63,82,95,28,37,112,122,410,399,290,284,505,480,442,341,326,353,300,343,186,198,97,70,236,124,51,112,153,142,228,296,407,420,472,420,375,383,333,278,408,317,247,244,34,128,238,127,45,80,274,128,284,304,359,351,434,434,389,393,279,289,463,,174,,18,46,102,160,105,88,134,170,223,294,339,374,409,416,299,281,320,322,351,374,177,389
167,17,98,60,96,102,99,215,179,355,297,295,318,482,425,345,372,374,425,503,360,172,252,163,62,80,86,34,35,112,112,405,399,293,284,516,483,450,341,343,416,301,337,178,193,125,64,220,111,54,152,159,151,231,294,401,421,460,419,376,381,342,288,405,319,255,236,36,146,227,127,43,208,263,135,287,309,369,347,433,435,387,391,276,304,463,,172,,22,48,100,157,106,92,134,169,226,296,350,379,411,419,297,282,319,325,353,375,176,389
168,21,94,60,95,125,88,266,155,352,309,298,326,469,426,348,381,395,416,429,388,181,234,139,58,74,104,33,36,110,114,406,400,288,282,516,482,447,341,326,377,299,337,185,203,125,72,202,118,51,232,184,154,234,289,396,420,457,419,378,378,334,287,399,320,278,231,37,141,203,128,45,209,258,133,290,305,363,354,435,440,386,393,280,317,463,,172,,20,41,96,158,109,97,135,172,227,291,362,382,411,417,301,281,315,316,359,371,181,391
169,21,111,62,119,100,88,283,238,360,313,293,325,476,424,345,378,363,384,467,575,224,213,143,63,68,98,33,40,112,114,402,395,289,285,506,482,452,340,325,336,297,339,187,187,129,67,186,143,61,418,141,146,234,288,399,420,455,419,378,376,327,291,403,332,254,216,33,150,189,128,51,173,258,132,284,308,356,352,439,437,388,396,270,292,464,,167,,19,40,94,165,102,96,129,167,223,290,364,386,406,417,300,284,316,324,352,372,180,392
170,20,101,61,123,77,85,341,256,362,301,298,325,494,438,345,383,349,348,439,701,205,216,126,65,62,97,37,41,113,116,405,391,289,283,502,482,449,338,324,340,295,336,172,199,134,68,161,133,51,266,125,145,238,294,405,414,452,420,378,378,344,290,402,360,286,211,32,131,167,130,50,154,260,133,285,305,360,354,436,439,385,403,272,287,464,,165,,18,47,96,153,106,88,134,152,221,290,363,380,407,417,301,287,316,319,353,371,181,395
171,18,103,63,169,97,94,259,294,340,302,296,322,470,482,345,374,351,339,521,745,203,237,127,65,63,92,35,37,112,117,404,392,291,286,506,480,455,339,322,350,297,341,172,189,126,67,157,230,52,218,122,150,237,283,402,419,453,419,378,378,335,292,399,339,264,198,29,178,164,116,53,135,270,133,284,307,368,352,433,436,387,410,272,290,461,,176,,16,41,95,143,99,96,134,161,222,287,364,377,405,418,297,289,314,327,350,368,188,383
172,15,94,61,272,73,109,251,301,349,285,281,322,470,481,343,375,369,336,581,577,239,212,161,63,77,87,30,30,113,122,407,392,291,283,507,477,458,337,333,345,297,341,174,188,112,58,149,251,44,209,119,154,241,289,396,417,452,419,380,378,336,295,399,347,276,215,34,221,163,121,49,106,271,135,283,309,371,354,431,443,386,405,260,303,460,,171,,18,46,90,141,115,95,133,154,221,290,367,378,410,416,297,289,314,318,350,363,187,388
173,17,83,59,246,90,106,274,267,351,287,282,324,484,522,344,366,359,337,581,669,227,216,145,68,69,92,35,28,111,123,405,396,288,283,509,475,452,336,329,342,294,341,178,199,119,75,155,274,45,145,119,143,242,286,391,425,452,419,382,377,338,301,398,343,272,215,37,205,160,120,48,120,270,131,283,310,366,355,435,434,386,401,267,298,462,,178,,18,38,84,143,116,89,133,164,218,290,365,377,408,421,298,289,311,317,346,365,191,403
174,19,77,55,281,85,98,232,252,359,302,281,326,490,659,348,380,356,375,463,516,211,194,149,65,76,92,31,31,110,117,406,395,288,283,502,479,456,334,327,347,295,341,174,189,116,57,168,318,43,171,119,149,242,287,392,427,451,419,381,377,343,289,397,342,255,223,39,194,147,124,45,100,261,132,289,311,367,354,430,438,387,405,273,295,462,,187,,19,41,82,145,115,89,144,160,219,288,368,382,412,420,297,291,311,325,343,364,201,394
175,22,93,58,278,82,89,230,254,339,299,275,320,478,546,352,379,379,375,445,550,206,206,137,53,69,81,36,37,113,124,404,397,289,283,496,481,452,334,323,340,294,345,171,179,110,58,180,335,45,191,120,140,242,289,391,427,450,422,382,372,325,287,406,347,253,236,39,209,131,119,40,79,260,140,288,312,363,357,428,437,380,405,274,299,460,,189,,17,47,84,147,117,95,142,170,218,285,360,378,414,422,298,292,308,313,344,361,194,394
176,22,106,65,334,71,90,215,231,324,283,284,320,478,613,357,373,373,378,430,447,210,220,154,51,65,75,40,35,116,116,405,397,288,284,500,485,455,331,327,335,295,346,177,175,99,55,155,289,44,153,120,139,244,293,395,424,450,423,381,379,327,288,408,345,256,212,35,224,133,123,40,72,260,137,290,312,368,360,431,436,379,406,274,289,461,,198,,14,45,85,147,111,94,142,166,217,280,356,383,416,422,295,291,315,323,345,361,191,395
177,21,77,67,397,71,81,177,215,341,291,281,322,482,562,359,371,344,368,353,649,217,196,115,54,72,76,45,34,112,120,404,396,289,281,498,488,450,331,335,326,292,347,182,182,97,69,157,248,46,204,115,147,234,289,401,422,450,423,381,383,322,288,411,349,245,202,32,192,132,121,34,66,272,141,290,315,364,359,431,439,378,406,275,287,461,,186,,15,46,86,154,109,87,141,180,213,281,355,379,412,421,298,292,308,320,346,360,189,396
178,23,100,64,408,95,105,185,198,346,294,279,327,482,562,361,369,346,351,362,625,199,194,82,58,77,73,35,29,116,118,415,397,288,283,503,491,451,331,332,338,294,346,177,194,96,52,149,287,49,167,117,150,230,304,396,423,447,425,381,380,314,289,414,340,251,205,33,170,144,105,26,76,271,138,287,315,365,364,426,442,376,410,271,278,456,,192,,16,39,87,143,113,87,146,168,214,281,354,377,414,420,298,291,303,322,351,360,192,398
179,64,113,61,423,98,112,175,210,339,261,289,322,503,551,373,372,383,360,357,707,211,196,53,61,84,51,31,24,113,113,405,402,289,280,504,495,454,334,330,346,294,349,177,186,99,63,129,252,50,156,114,147,232,296,403,422,454,424,383,380,319,281,423,338,274,213,36,162,129,103,42,81,266,133,289,313,368,367,426,451,381,411,271,283,453,,182,,15,35,93,136,110,94,133,166,219,280,359,378,415,425,298,292,304,321,356,358,186,398
180,136,95,58,484,87,96,172,199,353,299,288,324,498,536,371,377,342,344,413,628,193,194,57,63,95,47,34,31,110,124,405,402,287,288,491,502,452,327,320,320,293,349,191,183,99,63,112,253,45,126,114,155,228,292,400,416,449,424,383,378,319,281,423,344,280,215,35,159,128,113,46,68,266,136,290,314,368,366,432,444,385,409,271,275,452,,183,,18,39,96,129,110,95,131,162,217,278,352,380,412,424,294,290,305,342,359,360,168,404
181,178,85,57,470,77,87,181,199,347,280,293,321,490,504,363,368,337,327,346,682,187,190,65,61,86,52,33,28,112,121,400,399,289,282,486,505,453,331,327,311,295,348,208,174,114,57,111,253,44,108,117,158,225,295,401,414,444,424,383,376,324,291,433,347,288,209,33,188,123,117,65,69,267,143,292,315,370,365,428,445,384,409,286,287,451,,188,,21,39,94,115,116,105,139,147,215,279,357,375,412,427,294,288,308,334,364,359,160,395
182,187,95,61,413,89,80,159,192,344,277,293,329,480,490,371,366,369,352,395,572,227,210,71,62,105,45,32,27,110,120,404,400,292,288,495,507,453,330,336,322,297,347,230,164,105,53,114,245,39,94,113,161,229,298,403,416,442,424,384,378,325,283,440,343,234,201,209,149,122,130,80,69,274,138,290,315,371,374,427,440,386,409,267,283,448,,186,,19,38,93,134,113,105,145,146,218,280,358,372,406,429,292,290,303,342,365,360,161,389
183,231,93,62,461,95,92,153,197,363,279,305,313,485,480,398,372,374,372,343,606,219,223,64,64,100,48,37,30,112,119,407,420,292,282,499,507,445,330,337,313,299,347,209,167,144,53,122,193,41,167,115,164,231,295,411,412,452,427,385,383,312,301,448,342,261,218,201,149,118,146,89,60,281,150,292,314,381,373,421,449,386,414,276,286,446,,187,,18,39,96,144,104,107,139,135,219,282,359,374,405,430,293,290,303,343,366,361,169,391
184,221,101,62,403,81,101,156,186,361,285,299,308,490,476,389,367,362,391,454,500,206,229,62,57,100,44,40,31,112,120,400,405,288,278,490,509,443,330,336,317,300,345,206,176,144,65,103,220,38,145,111,153,228,295,405,411,460,428,381,386,310,297,449,344,264,238,162,196,129,131,74,65,277,620,292,315,387,367,426,451,387,412,272,276,445,,184,,22,49,94,128,112,100,135,136,218,283,344,366,403,427,290,290,308,340,364,364,177,387
185,186,94,54,387,72,94,162,201,377,287,301,314,483,486,372,366,358,400,453,578,199,210,62,57,95,47,39,32,112,120,407,383,286,273,483,507,444,333,332,332,299,344,207,170,190,60,134,235,40,95,111,149,228,296,403,412,457,429,381,389,318,311,443,342,240,233,149,186,130,130,81,64,282,581,290,314,379,366,424,449,387,410,273,278,447,,181,,17,39,90,118,119,94,139,134,221,277,359,369,401,427,294,291,317,332,367,366,173,389
186,141,94,56,391,86,90,169,217,372,265,300,311,485,500,362,367,329,393,399,542,187,197,52,60,91,45,29,26,113,118,400,406,286,274,490,510,445,334,322,313,299,345,193,168,245,53,128,256,48,85,111,177,225,294,406,406,463,430,379,391,330,291,443,338,245,234,204,152,124,118,70,75,271,390,291,320,384,370,421,455,388,407,276,259,441,,182,,16,41,89,119,125,98,137,128,223,282,348,370,400,429,292,288,315,333,367,366,170,396
187,172,92,56,369,86,84,180,193,379,267,295,306,477,516,368,369,374,405,397,499,184,189,54,61,85,46,28,23,108,116,400,408,289,275,489,514,449,337,320,321,301,342,199,183,219,54,116,242,43,72,113,275,226,295,407,405,468,430,379,392,311,301,443,339,251,247,206,145,129,122,60,78,276,286,293,315,374,369,425,454,382,409,278,267,440,,182,,19,39,90,118,123,103,135,129,222,279,351,364,400,428,292,297,312,342,366,368,174,400
188,148,100,61,323,105,89,165,226,380,268,290,307,480,512,374,378,378,413,364,414,201,209,62,56,86,51,33,27,112,113,396,407,282,276,481,513,444,338,326,325,301,341,208,177,205,49,122,222,44,102,112,252,227,292,404,416,472,427,378,392,314,304,442,340,238,226,247,145,130,124,46,62,284,224,296,314,379,370,423,454,384,406,264,283,439,,186,,20,42,87,123,66,96,139,129,220,279,350,365,398,429,291,297,307,336,362,371,181,388
189,133,95,63,279,78,64,177,210,368,273,303,308,470,483,361,379,399,443,350,561,202,186,56,54,78,49,39,32,114,121,389,403,276,277,476,510,451,334,322,327,302,339,206,167,186,47,96,226,43,67,112,260,225,295,405,406,476,428,378,395,318,301,444,342,258,230,239,157,115,127,56,72,289,210,298,317,386,367,420,456,389,404,269,264,438,,187,,18,48,83,118,47,94,143,125,219,276,345,358,400,428,290,296,308,335,361,370,180,388
190,108,88,60,294,85,63,181,228,368,260,292,307,480,489,363,384,397,426,412,497,200,174,53,51,84,47,40,33,112,118,386,403,278,277,477,508,450,336,335,321,306,339,215,168,162,57,89,278,45,70,115,210,227,294,406,400,480,427,376,394,327,302,450,340,245,238,233,146,121,118,50,73,295,184,298,317,381,369,424,457,392,402,262,280,439,,181,,16,44,81,98,47,94,135,128,226,280,338,360,402,428,291,295,314,331,358,372,185,390
191,128,80,64,357,78,81,156,226,372,271,303,304,484,518,361,383,400,378,407,491,194,222,57,51,88,44,37,34,112,117,383,410,276,280,488,508,456,335,316,326,306,341,209,160,156,53,95,260,28,78,114,178,229,294,406,406,480,426,376,400,324,290,448,344,247,239,201,153,115,114,63,66,292,165,300,320,384,371,424,458,393,403,266,284,438,,182,,14,49,86,91,49,98,134,125,220,278,335,361,395,426,292,297,316,328,358,372,190,391
192,113,87,64,403,65,91,168,225,364,274,281,303,478,505,348,388,384,380,473,380,198,182,48,47,90,46,33,37,114,118,389,414,278,279,493,506,456,337,310,314,303,347,201,162,127,49,97,213,43,72,110,162,229,298,404,411,484,424,375,392,319,303,443,348,244,234,171,139,122,116,52,74,293,159,303,313,383,369,424,459,390,404,267,296,440,,181,,17,39,87,89,47,101,136,124,219,275,340,366,397,425,289,286,310,333,353,371,190,392
193,96,86,58,373,70,104,162,219,362,285,284,302,483,505,356,390,383,429,454,397,192,177,45,55,85,50,33,27,110,117,384,407,278,281,496,503,461,339,310,318,306,351,213,169,133,40,95,264,44,53,114,165,226,296,405,411,486,423,376,393,336,298,438,350,241,237,167,162,120,105,58,69,290,156,300,313,385,371,426,460,394,407,258,288,445,,184,,19,36,91,86,49,98,132,123,217,275,338,365,395,427,287,290,312,332,354,368,194,393
194,105,87,53,375,90,86,162,217,363,257,299,299,492,499,353,383,414,403,491,366,207,218,45,60,81,53,34,33,112,114,381,419,278,282,494,506,470,340,313,317,305,357,204,160,120,53,92,257,40,65,113,156,226,297,405,404,488,423,373,390,336,308,440,349,240,238,169,162,127,97,59,70,290,148,303,316,382,376,419,462,392,401,268,284,451,,182,,21,39,93,71,45,101,136,125,218,275,345,362,398,423,286,285,318,334,351,366,193,388
195,83,96,57,357,85,80,155,236,359,273,311,298,475,493,350,385,379,414,461,358,187,215,47,57,87,57,38,29,112,115,387,410,279,286,498,511,470,337,317,312,308,359,206,156,135,43,80,207,38,51,114,160,225,298,395,412,489,422,374,387,337,300,441,354,242,266,157,140,119,97,53,61,287,166,302,324,387,380,424,471,390,406,260,272,453,,184,,18,42,97,81,52,106,134,125,218,275,345,365,399,424,288,283,317,325,349,367,197,388
196,95,96,61,459,92,77,178,212,367,278,307,299,481,486,347,384,374,394,499,421,196,196,51,62,92,62,37,38,111,111,391,409,279,286,492,528,470,342,318,318,305,361,213,158,128,51,99,243,41,43,112,152,226,298,394,412,491,421,371,390,328,298,440,354,240,236,128,131,134,102,60,66,292,155,300,323,378,382,424,476,391,401,263,290,457,,185,,21,53,98,80,85,108,137,125,219,276,343,367,398,422,288,285,322,330,350,363,197,389
197,118,79,63,405,68,84,164,214,369,278,319,293,483,507,351,384,340,372,413,454,200,204,48,58,92,53,41,41,112,111,391,454,280,288,487,530,476,340,318,315,304,361,206,160,131,46,96,270,42,43,112,159,228,296,393,410,492,420,370,391,334,297,440,357,234,246,160,127,131,109,52,62,298,147,301,322,382,383,427,484,390,402,266,276,462,,183,,19,51,97,83,91,103,134,127,216,274,344,364,400,421,287,280,316,332,349,361,198,380
198,103,87,59,298,85,86,177,210,353,280,297,295,481,496,359,383,369,373,373,489,194,187,55,73,85,57,39,40,113,110,391,473,284,292,488,535,477,339,325,317,302,361,203,161,110,53,106,217,37,48,109,151,227,297,397,412,489,419,373,390,318,290,436,357,246,230,141,119,127,119,47,58,285,144,306,324,386,389,427,490,385,401,269,291,460,,182,,18,49,95,69,102,101,130,131,217,276,353,372,400,420,288,281,314,330,348,365,196,379
199,105,92,54,381,72,98,160,234,365,314,299,293,478,474,351,381,354,382,410,427,191,195,50,67,83,67,32,39,115,111,395,415,282,290,490,527,475,339,318,310,302,358,203,163,126,49,95,211,39,46,110,149,229,297,401,416,488,419,374,388,330,301,435,356,261,229,138,119,123,107,58,67,297,160,306,323,392,388,433,489,392,402,260,278,464,,181,,18,45,93,78,58,99,138,128,216,275,359,371,402,418,288,281,314,325,344,363,198,377
200,101,86,57,317,97,104,162,215,367,296,297,289,489,491,351,380,344,403,434,436,196,195,48,56,89,75,37,38,115,113,394,412,284,285,494,527,473,339,325,310,300,355,205,166,104,53,108,252,40,45,111,157,225,291,406,415,488,419,373,391,316,296,436,354,243,208,113,122,132,108,50,59,293,149,308,324,393,388,424,489,390,403,260,279,464,,191,,18,45,99,88,67,94,137,123,218,278,357,371,402,418,288,282,316,335,345,362,199,376
201,108,94,58,263,72,95,152,223,361,272,296,292,476,474,358,385,310,452,389,377,187,187,47,64,84,71,39,34,113,111,396,397,285,283,492,515,470,337,338,316,301,355,202,164,112,48,104,216,41,34,115,152,226,294,406,418,479,422,378,387,309,281,439,353,251,214,117,125,133,100,51,60,290,154,303,323,396,389,425,491,388,406,260,271,461,,195,,22,39,93,81,103,103,138,125,212,274,358,373,399,416,290,276,317,327,344,361,192,384
202,105,82,61,276,79,84,154,191,342,279,298,291,490,471,355,386,352,428,414,373,199,195,47,58,83,66,41,36,112,115,389,402,288,284,492,510,470,333,328,306,299,354,208,166,102,43,116,251,44,37,112,157,228,292,407,417,454,423,379,385,310,282,441,359,263,213,99,123,129,92,53,59,290,141,303,327,402,390,423,491,384,408,258,281,464,,199,,24,38,88,82,112,94,137,124,216,278,356,378,399,417,293,274,320,335,346,364,195,379
203,136,93,63,322,66,78,166,232,352,283,284,292,482,477,346,388,350,425,366,451,202,184,45,57,83,62,40,36,113,118,388,395,286,284,491,517,468,335,327,305,299,357,186,164,107,49,116,205,44,33,110,146,226,292,414,418,448,425,392,382,311,281,441,356,264,208,97,126,127,87,53,66,286,141,308,325,407,385,427,496,383,404,256,274,464,,202,,21,45,82,80,85,97,139,125,216,280,354,382,399,418,291,273,313,331,347,365,190,389
204,153,88,62,350,63,80,164,198,355,297,293,294,474,482,347,384,352,444,402,416,247,212,50,56,79,59,44,43,113,122,389,397,287,284,495,528,466,331,328,304,296,357,203,164,115,45,122,199,38,34,107,143,224,289,412,420,448,429,401,386,313,284,442,354,255,201,105,107,124,93,51,53,287,137,303,325,410,390,425,499,380,410,272,291,466,,199,,19,42,85,82,54,92,139,124,213,277,359,380,401,419,292,276,316,323,347,369,191,380
205,178,87,64,296,63,80,157,214,360,272,298,290,469,471,351,386,338,451,398,349,202,193,55,61,86,73,42,39,110,118,386,391,285,281,497,531,466,328,322,324,296,354,193,165,99,48,147,203,36,49,111,152,226,290,412,418,449,433,383,382,318,278,446,354,267,192,109,109,128,93,47,51,283,141,306,329,411,390,426,493,378,410,272,299,461,,198,,17,43,83,85,44,93,133,120,208,279,356,381,401,421,295,270,312,327,350,377,188,391
206,149,91,61,359,65,81,144,193,360,288,305,295,470,472,353,386,355,428,394,332,189,212,48,63,83,70,33,40,115,115,379,395,284,281,497,530,467,330,332,314,298,351,198,149,125,50,128,257,32,46,114,149,226,293,414,421,449,437,383,386,313,282,452,351,245,197,139,105,124,127,45,70,280,136,308,331,413,388,423,492,371,416,277,282,459,,200,,18,41,83,90,43,94,139,123,213,280,352,375,400,426,292,282,309,321,359,382,189,393
207,118,90,59,325,67,79,136,200,360,263,303,298,472,473,348,381,381,422,361,384,193,189,47,63,89,62,34,39,114,122,378,341,290,285,496,525,469,328,330,319,297,348,193,152,111,50,124,225,32,36,113,142,225,297,416,422,450,440,381,378,306,289,451,351,252,175,170,111,121,80,50,67,284,134,306,330,408,389,424,488,370,414,271,279,460,,199,,20,40,86,93,50,102,134,123,214,280,356,375,404,430,292,280,310,324,381,382,188,381
208,123,112,57,314,75,76,142,195,380,263,306,300,478,470,343,376,380,434,396,391,195,185,47,73,85,61,36,38,112,114,379,247,287,282,491,514,466,324,326,322,295,347,204,150,108,60,107,212,32,30,109,140,227,295,413,420,448,442,378,381,328,288,450,353,289,190,143,113,118,81,42,70,271,138,303,334,413,386,420,486,369,414,267,279,458,,202,,23,37,91,87,47,104,136,123,212,283,360,376,403,432,293,287,309,322,375,379,193,386
209,139,108,59,306,81,90,146,172,381,260,306,301,482,471,353,376,390,380,411,394,201,166,40,65,84,56,35,32,108,113,376,227,283,280,497,515,470,322,329,324,299,344,191,176,123,59,105,176,40,37,111,144,226,288,416,423,447,444,376,378,325,290,451,348,253,188,154,141,127,81,41,61,282,137,309,334,408,385,421,481,368,418,264,273,454,,199,,25,43,94,85,45,111,137,123,213,283,355,372,405,435,294,283,314,325,386,375,190,383
210,145,116,62,372,80,73,139,179,358,253,307,301,483,483,350,368,387,421,381,374,181,187,48,65,79,64,34,39,110,112,383,404,289,284,486,511,465,321,334,317,302,346,177,175,131,51,107,206,37,34,112,141,226,295,418,423,446,444,377,375,319,288,453,346,257,194,141,155,130,83,39,53,283,136,308,319,408,386,421,481,370,419,272,272,455,,197,,24,42,99,86,47,129,131,126,211,281,357,373,411,437,293,280,314,321,383,379,194,387
211,153,128,63,346,82,84,137,194,366,258,298,306,478,481,345,370,366,474,387,382,203,179,52,65,76,68,34,40,113,114,380,277,287,278,485,530,464,323,326,326,307,346,188,163,156,55,103,183,35,30,112,143,226,290,415,424,445,452,368,374,312,280,451,350,269,192,131,164,124,81,35,50,276,137,306,307,405,384,423,481,369,424,274,276,453,,197,,22,47,102,89,38,157,132,126,214,281,352,371,406,442,296,279,315,322,366,377,200,393
212,150,129,73,427,93,92,145,189,364,256,302,302,475,474,337,372,404,456,389,562,193,187,51,62,79,71,35,42,114,116,378,232,286,279,496,535,467,325,326,328,306,343,247,168,176,48,96,171,37,24,112,137,228,292,415,422,443,466,369,373,322,278,454,354,270,182,121,190,119,91,41,49,273,144,308,307,407,381,418,480,373,426,267,281,452,,192,,21,45,100,89,37,138,136,126,214,282,349,369,411,438,295,280,324,326,372,372,195,388
213,150,129,71,359,103,73,149,187,362,267,295,301,478,492,347,375,364,414,417,644,181,193,49,60,78,70,38,40,112,117,382,221,286,281,496,573,467,324,324,323,308,342,311,163,149,56,106,192,33,41,110,143,249,296,415,423,441,458,366,368,313,284,451,360,270,193,116,168,127,93,45,49,278,143,308,304,403,380,420,483,376,427,265,278,449,,197,,22,42,97,89,35,141,132,125,214,283,354,369,412,440,297,276,330,326,370,374,196,385
214,145,104,74,316,126,76,153,174,357,269,302,299,467,496,339,373,367,467,466,502,179,186,44,62,85,66,35,43,113,128,381,223,284,273,490,555,464,330,329,317,313,341,422,155,126,70,122,162,41,41,120,153,247,294,412,421,439,456,373,368,329,287,448,361,265,175,112,170,124,94,48,58,278,141,306,303,402,384,420,482,378,417,273,270,447,,195,,23,37,102,88,41,115,136,126,211,283,352,366,414,440,295,282,328,328,367,380,202,398
215,163,114,91,299,104,108,145,178,351,255,297,300,476,500,336,373,315,485,465,652,202,187,44,62,84,63,35,39,113,119,382,247,285,274,482,569,467,334,321,308,311,356,407,159,144,58,132,161,43,34,166,153,233,297,411,419,437,445,372,369,313,283,449,365,250,197,107,146,127,95,55,68,286,137,307,303,395,387,418,487,380,417,267,272,446,,197,,25,44,132,83,40,154,135,124,210,282,347,363,413,445,295,274,332,325,381,387,208,394
216,141,127,111,304,100,112,146,183,352,264,303,301,483,503,334,361,348,476,325,648,213,214,49,62,74,57,35,38,109,116,382,261,287,274,485,565,463,332,319,314,314,417,390,164,142,64,125,162,51,30,178,152,227,295,413,415,438,443,371,368,320,288,445,369,231,199,123,139,127,100,49,54,286,129,306,307,396,385,415,488,380,418,273,274,447,,197,,30,40,139,74,47,161,135,124,212,281,349,364,418,445,291,273,333,328,374,396,203,375
217,156,100,157,419,105,110,149,195,352,260,307,304,473,511,333,371,375,498,400,571,240,190,47,59,78,58,34,39,109,116,386,271,290,274,481,581,461,332,325,313,313,531,311,158,124,59,167,137,43,32,180,150,226,299,407,415,436,442,363,372,313,283,439,374,232,186,103,162,133,96,46,58,278,127,307,309,389,384,414,485,383,422,259,287,440,,196,,26,42,136,80,43,198,132,126,213,280,356,366,419,444,294,278,332,331,373,417,205,383
218,139,118,184,412,118,133,153,193,347,252,302,304,479,510,340,371,390,459,421,430,224,183,48,67,84,62,37,42,110,116,381,273,284,275,478,597,461,334,319,313,313,586,316,158,135,54,143,388,46,36,174,150,224,299,409,415,436,438,367,375,320,282,441,377,261,191,99,193,128,93,48,49,282,130,307,304,389,384,416,485,386,423,257,279,441,,195,,26,43,134,84,85,185,129,125,212,279,360,367,434,445,291,284,335,323,377,392,210,385
219,122,115,250,330,130,104,144,212,347,262,297,305,476,513,336,375,372,475,466,518,209,187,56,65,95,62,38,44,109,118,382,282,286,273,478,584,458,331,315,306,313,616,340,164,119,56,131,229,36,45,167,152,225,299,408,415,438,438,370,376,308,283,439,378,263,202,96,180,130,90,51,49,288,133,306,309,390,380,413,486,386,421,266,290,440,,202,,27,44,135,110,118,170,133,124,217,282,356,372,460,442,291,282,326,326,371,381,208,390
220,106,121,228,326,115,101,149,217,349,264,301,299,481,516,338,370,352,447,394,388,230,186,48,64,94,64,38,46,111,116,381,280,280,275,477,578,454,336,309,304,312,569,309,166,118,54,123,159,38,31,158,160,228,301,409,415,440,445,355,383,309,287,440,377,257,189,85,166,125,90,51,56,277,134,308,305,383,382,417,487,387,417,263,281,441,,206,,24,43,132,115,127,214,134,125,217,280,363,374,445,436,292,282,325,333,364,386,205,395
221,100,127,260,369,101,107,156,215,350,263,295,299,486,498,343,374,400,414,357,405,243,221,49,66,89,63,30,43,110,114,381,278,279,273,478,573,453,334,319,302,310,464,272,150,138,53,129,137,48,34,154,148,225,297,405,411,447,433,356,385,349,283,443,379,258,185,87,170,125,96,39,55,281,129,304,303,381,388,411,485,395,413,267,285,440,,208,,27,43,98,117,66,232,133,126,218,278,366,375,458,428,295,279,326,332,384,376,209,390
222,106,113,272,315,97,110,150,219,344,261,296,297,480,506,342,373,354,470,365,388,237,213,44,64,83,58,33,39,109,115,380,280,278,269,478,570,454,334,329,315,314,442,285,170,122,61,135,138,44,31,153,144,227,294,396,409,453,435,355,390,325,286,447,379,262,183,103,150,126,96,47,58,274,137,308,305,383,386,408,486,396,412,270,282,439,,206,,26,40,90,111,57,235,133,127,216,278,373,386,462,428,291,274,328,329,385,378,212,375
223,93,103,341,312,90,108,147,221,344,262,298,298,485,513,344,376,387,474,357,384,230,212,41,61,82,59,30,34,109,116,383,290,280,269,472,561,454,334,327,310,344,446,316,156,115,72,121,130,37,28,152,146,230,298,397,409,460,441,355,394,312,292,454,375,265,190,98,171,133,93,41,60,275,124,307,301,385,386,413,489,400,413,274,304,439,,205,,28,44,93,108,54,169,132,125,214,279,374,381,450,427,289,278,326,333,382,384,213,390
224,87,110,334,295,89,86,154,195,344,268,297,299,474,501,358,377,327,468,395,414,209,220,48,67,88,60,33,37,110,119,385,291,279,269,471,572,454,333,340,305,318,471,324,156,116,64,121,141,34,22,146,147,228,298,397,413,465,439,347,395,302,281,460,375,273,203,120,170,128,83,49,60,275,137,310,303,388,389,414,489,398,416,280,298,442,,205,,29,52,96,114,55,198,132,124,216,274,368,386,461,424,290,273,326,327,392,378,205,384
225,98,111,338,333,78,82,153,204,342,265,295,296,481,500,359,377,363,581,371,376,229,212,48,67,86,59,32,40,109,114,385,288,279,268,471,557,453,332,349,305,406,489,305,184,89,68,129,141,37,30,177,151,229,293,399,416,467,430,346,391,311,288,468,378,273,225,123,134,121,85,42,62,279,141,304,302,390,385,419,488,397,416,278,286,447,,206,,27,71,96,117,49,163,135,124,218,273,364,383,461,424,292,269,319,333,393,380,203,389
226,117,87,329,337,97,96,157,196,340,263,293,299,474,501,361,371,373,606,407,364,223,204,53,67,88,61,33,42,107,113,381,285,277,265,477,580,449,334,346,306,536,398,279,176,94,59,129,182,36,45,193,147,226,294,400,420,467,429,348,380,308,294,470,376,265,228,121,131,114,88,43,54,279,135,303,301,388,388,424,489,394,412,275,289,448,,207,,27,131,95,113,41,181,134,124,219,273,370,388,466,425,288,276,322,327,389,371,205,396
227,123,96,349,278,92,97,160,186,342,264,294,294,469,497,359,374,375,686,377,326,205,210,48,65,77,58,33,42,108,121,378,294,279,266,477,585,457,335,355,309,631,390,274,172,104,62,116,156,31,37,180,159,226,300,399,423,470,428,339,377,307,289,473,377,274,235,145,116,123,94,46,45,280,139,309,308,388,391,422,490,394,410,281,279,445,,207,,25,179,99,112,44,245,139,127,213,276,364,386,452,423,286,269,324,328,390,375,201,391
228,139,95,446,227,75,80,144,179,338,262,291,293,477,487,357,371,368,583,449,383,200,225,52,66,81,51,37,46,109,114,379,295,278,266,476,584,465,335,347,313,456,418,298,161,99,68,101,142,31,47,191,149,227,292,404,429,469,438,339,382,321,299,476,378,279,239,134,132,111,100,46,46,291,129,308,302,386,391,427,490,393,410,278,284,447,,209,,26,178,96,113,48,213,142,125,214,272,369,386,469,425,290,269,317,325,382,373,199,387
229,160,134,411,262,77,137,146,176,337,268,289,296,485,486,356,367,342,676,387,437,213,215,48,58,88,55,34,35,111,114,375,290,281,265,473,571,463,347,359,311,416,361,291,154,108,52,94,142,38,42,197,147,229,293,404,432,470,437,339,385,316,303,477,378,280,229,107,126,122,99,56,47,282,126,309,300,390,389,429,491,396,415,280,266,452,,213,,28,165,102,116,40,163,138,124,217,273,364,383,465,424,289,273,316,329,380,373,200,387
230,220,98,449,311,83,100,144,185,337,270,290,288,473,483,352,371,381,590,361,370,238,214,46,60,82,57,35,36,111,113,374,290,281,268,472,562,465,392,337,319,485,398,271,151,104,56,100,147,36,39,232,138,225,291,406,432,469,437,342,369,320,296,474,375,271,234,90,124,126,98,52,48,286,128,304,300,387,395,432,514,395,419,281,273,470,,211,,29,171,124,117,43,188,135,123,218,270,361,387,454,430,291,270,322,326,389,373,183,384
231,203,100,465,221,100,99,142,187,340,269,286,290,470,489,349,371,345,559,356,361,225,217,48,64,90,61,39,34,108,114,375,288,279,266,463,556,463,389,339,314,379,364,275,151,67,61,117,177,51,40,246,139,230,293,408,435,473,433,337,370,309,292,475,375,260,212,98,117,130,105,42,55,283,129,304,301,393,399,429,517,394,412,282,272,445,,212,,36,183,131,114,41,193,139,127,218,269,362,386,452,467,292,271,324,316,383,373,166,391
232,187,103,381,289,80,107,139,202,344,267,284,290,486,484,355,366,364,579,361,355,206,208,45,68,85,59,40,41,108,132,376,296,277,267,462,540,467,370,351,321,366,363,258,156,66,52,103,201,46,28,242,131,228,293,406,442,473,428,333,366,305,295,473,370,264,215,111,127,132,93,51,48,300,131,304,306,392,397,427,504,393,412,281,285,422,,212,,39,168,135,102,39,183,141,125,222,284,354,384,459,470,298,269,317,321,383,368,160,393
233,227,120,394,300,112,81,160,175,342,265,281,293,474,483,352,366,343,546,366,344,207,218,46,68,87,55,38,40,108,159,379,286,279,266,468,548,466,412,346,314,382,375,248,152,86,79,100,212,47,38,249,143,227,290,412,439,480,426,334,368,298,286,472,370,261,211,113,119,143,99,43,43,287,132,303,302,395,382,428,480,396,409,275,280,420,,214,,41,183,136,89,42,134,140,127,223,282,359,381,447,469,296,269,320,323,383,372,160,390
234,190,111,362,271,91,84,161,173,340,261,283,292,481,485,348,366,317,496,394,357,208,210,48,65,83,57,35,43,109,191,378,282,277,268,474,556,469,401,343,303,344,415,239,156,111,107,98,187,43,38,227,146,224,287,408,443,474,427,334,356,318,296,470,369,271,224,132,139,137,101,45,51,290,127,304,303,394,371,437,454,395,405,278,287,432,,213,,48,169,134,85,45,138,146,129,222,286,361,379,458,467,299,271,308,323,393,375,170,388
235,188,106,308,333,112,70,151,185,344,272,287,293,458,482,356,364,313,431,638,360,207,216,45,57,80,57,31,41,108,231,383,287,278,269,470,550,465,406,340,308,361,401,235,157,111,117,93,178,41,33,203,139,225,293,409,441,474,430,329,358,317,316,471,367,259,200,148,155,130,100,44,61,289,132,305,302,388,336,439,459,395,406,298,276,439,,210,,69,172,132,84,48,147,142,126,221,286,361,380,443,450,304,272,313,323,386,376,161,394
236,214,106,364,237,81,61,149,160,344,262,281,295,480,484,352,369,302,394,923,402,223,209,41,58,83,57,39,39,110,259,380,285,274,269,480,559,462,384,338,321,385,399,228,144,128,102,92,178,52,33,179,137,223,294,411,441,471,433,333,360,322,322,471,366,264,220,186,165,132,98,43,60,287,127,303,301,392,314,435,468,400,404,287,284,436,,211,,80,133,126,86,51,138,151,126,221,287,359,379,440,458,302,276,317,321,382,376,174,396
237,200,105,372,261,63,63,131,171,345,265,281,294,467,488,350,374,303,413,936,387,224,212,43,58,90,63,31,34,107,259,384,285,274,270,476,533,459,382,329,309,348,355,218,164,137,84,94,189,62,35,152,142,222,295,416,441,470,427,338,355,322,304,468,368,270,207,200,160,135,90,35,59,287,124,301,305,392,320,420,466,392,409,285,276,437,,209,,90,151,118,76,54,142,150,128,221,294,354,380,444,466,302,277,316,323,368,376,175,384
238,157,106,275,269,73,53,131,195,343,263,283,294,459,485,347,377,303,367,698,377,206,213,42,58,92,60,44,35,109,242,386,287,270,269,476,541,456,382,341,304,327,358,231,150,158,71,95,176,111,46,140,135,224,295,414,440,470,431,331,361,319,291,467,365,274,186,194,147,146,92,39,49,273,121,300,309,387,320,426,469,394,407,289,289,440,,207,,138,161,120,79,50,137,139,127,219,291,354,374,453,437,302,277,310,323,390,374,204,383
239,146,120,312,283,59,50,131,174,343,263,281,289,462,467,348,375,298,358,581,323,198,204,58,59,82,57,49,36,110,279,387,282,271,270,484,561,457,372,327,299,351,403,369,157,178,65,94,173,145,41,137,136,223,293,411,437,468,432,334,349,325,305,469,369,261,167,175,126,146,88,43,55,254,128,300,305,399,316,423,469,389,404,287,274,439,,205,,164,147,132,86,52,118,137,125,220,296,355,377,459,439,301,282,315,325,383,379,200,384
240,126,103,301,319,57,39,132,174,344,263,288,291,465,480,349,388,290,360,624,337,215,215,56,58,79,56,52,42,120,252,395,287,275,271,493,555,453,368,336,302,351,387,313,151,184,63,100,168,115,35,128,135,225,289,410,435,464,427,335,349,322,297,464,366,265,169,190,148,140,94,40,57,238,132,304,306,400,313,422,473,385,401,274,294,445,,207,,169,153,139,89,51,99,133,124,217,291,365,377,454,438,301,284,312,321,370,384,189,383
241,150,95,250,264,42,36,132,178,336,265,278,290,463,476,347,387,294,347,577,331,203,216,60,59,79,61,67,40,164,234,393,284,266,271,495,556,454,338,336,301,358,389,270,156,175,62,97,175,84,33,126,137,226,291,407,439,454,430,336,345,307,296,462,369,264,181,183,144,134,101,41,48,243,141,309,302,397,311,427,472,387,406,271,279,444,,203,,184,127,141,88,44,140,154,125,225,294,362,377,454,444,302,282,307,329,376,381,196,381
242,123,98,296,241,43,39,131,169,335,260,278,313,457,476,348,392,294,331,493,326,208,219,47,59,91,61,55,42,194,257,391,280,290,271,492,547,453,351,337,301,333,403,241,169,155,57,82,152,59,36,123,141,225,289,408,436,465,430,335,349,311,290,459,368,269,175,182,132,140,98,39,52,239,131,301,285,395,313,425,468,386,405,272,288,445,,204,,193,111,138,87,41,133,185,124,224,297,368,377,441,441,302,282,313,330,377,378,205,390
243,109,105,243,195,32,42,130,159,332,265,277,311,453,480,345,406,294,339,523,358,206,213,47,60,91,59,68,42,199,244,397,279,285,272,480,554,453,334,306,307,335,383,247,165,144,45,85,152,54,31,121,146,214,290,409,435,471,431,335,355,324,285,459,371,264,174,161,121,143,106,44,56,237,135,305,278,394,321,426,463,382,400,274,263,444,,203,,196,107,134,88,48,151,235,125,221,295,360,375,441,442,302,279,314,332,384,377,187,383
244,99,103,203,224,29,34,130,168,336,257,281,299,448,478,346,399,297,336,427,334,206,217,49,59,82,60,99,34,240,216,399,270,274,272,476,552,450,331,345,308,341,366,233,155,146,40,90,178,66,33,120,145,198,292,405,434,453,433,338,348,338,292,458,371,260,185,201,109,139,105,45,45,238,133,304,277,393,321,426,465,380,403,277,257,457,,203,,186,116,136,82,48,130,358,124,221,297,361,374,445,438,299,280,312,333,379,381,191,375
245,125,113,219,284,28,45,130,168,336,257,287,282,447,477,338,391,297,328,396,325,209,208,44,60,79,56,152,36,284,195,402,277,286,271,472,548,451,338,324,303,330,410,241,154,141,41,99,181,65,26,126,137,192,290,407,437,446,426,331,357,320,276,455,376,255,179,186,123,137,101,46,54,236,126,299,273,359,322,427,469,374,403,285,309,459,,199,,199,104,137,83,64,121,324,124,221,298,361,375,445,433,298,288,309,331,382,369,198,380
246,115,112,228,260,40,44,130,156,339,259,294,285,445,486,345,388,295,326,338,327,207,208,45,63,76,56,195,37,257,189,397,272,282,271,470,575,452,328,330,313,318,402,236,153,142,38,98,163,59,32,128,148,186,293,414,435,450,429,340,356,321,296,457,376,254,173,178,114,153,97,41,50,238,135,303,274,343,325,435,466,377,404,280,319,464,,201,,195,118,135,83,58,119,281,123,222,291,363,372,436,427,297,283,324,340,375,371,193,387
247,98,73,241,299,41,38,130,177,338,258,294,287,445,484,347,385,297,327,291,334,199,217,49,62,86,55,180,41,247,171,398,267,285,274,475,562,460,326,332,308,324,433,238,160,125,46,102,182,58,27,127,140,189,292,425,438,454,435,336,362,314,285,456,376,256,169,126,107,155,104,36,54,239,133,298,277,333,322,439,466,375,404,283,311,472,,199,,202,116,130,83,52,111,288,123,215,297,367,370,440,422,298,282,326,334,381,371,181,381
248,80,75,292,261,28,33,129,176,338,256,288,285,441,505,344,389,296,320,292,327,205,200,53,56,83,59,169,44,249,193,392,267,282,273,483,539,455,330,338,318,319,404,235,177,121,42,86,163,53,37,162,141,186,291,439,434,450,432,338,363,316,280,456,381,253,165,130,101,155,102,34,57,242,130,299,271,325,324,426,465,377,408,278,290,476,,199,,197,121,128,86,53,115,337,123,222,299,372,370,445,421,298,283,327,336,379,370,184,383
249,103,58,251,365,29,34,129,176,338,255,281,284,434,499,352,387,299,327,304,351,206,190,43,47,86,60,152,46,235,159,398,273,282,274,493,551,455,334,345,321,355,415,262,185,104,39,95,142,45,41,191,138,187,291,419,434,443,431,335,365,325,290,459,378,259,160,128,122,140,101,34,54,252,135,295,269,325,324,428,466,380,410,282,294,482,,201,,219,114,128,91,118,118,305,123,222,296,368,370,445,425,299,281,329,339,385,366,174,372
250,101,53,326,252,29,33,130,167,340,254,277,281,435,503,354,386,296,328,310,336,210,197,51,48,80,64,154,41,232,170,395,274,280,272,494,533,460,334,339,327,359,400,293,181,106,38,112,176,43,30,197,141,187,293,429,437,445,432,338,376,320,284,461,382,256,164,142,117,142,97,41,53,251,131,296,271,323,326,433,468,383,406,281,294,492,,197,,175,117,126,93,148,145,288,125,222,293,368,370,445,429,297,284,330,332,386,364,176,378
251,93,46,381,254,28,37,129,161,338,259,277,281,434,489,354,385,298,318,296,352,208,197,44,44,81,57,144,34,232,149,394,270,286,273,497,541,468,328,311,316,352,422,274,187,105,40,106,150,46,33,179,130,186,291,428,435,444,435,336,372,323,286,465,381,255,159,127,126,142,96,36,53,254,136,297,271,324,322,430,470,389,399,284,295,505,,197,,213,114,129,108,106,117,237,124,221,295,372,366,453,432,296,277,328,343,396,369,198,371
252,93,46,325,289,23,38,130,174,336,257,274,282,433,505,358,384,300,321,296,342,197,200,51,62,86,57,139,29,214,152,395,270,284,274,496,548,481,329,312,320,377,387,248,253,101,39,105,164,35,20,173,138,188,296,435,432,447,437,342,370,321,291,464,382,258,161,136,134,136,98,41,47,242,132,294,265,321,325,431,472,385,383,281,290,502,,194,,205,101,129,98,105,109,227,126,225,295,373,368,426,434,297,279,322,336,389,374,175,374
253,95,45,290,264,27,38,130,192,339,253,272,286,434,517,349,382,299,319,294,335,225,195,48,109,82,55,125,36,185,148,394,288,285,276,497,555,480,331,332,306,331,372,261,359,103,34,96,179,41,23,159,133,186,317,431,431,444,438,349,371,318,292,466,378,254,162,141,134,131,96,35,51,242,130,296,267,319,324,432,473,384,368,279,288,513,,192,,183,106,136,94,85,102,232,124,227,292,371,372,440,427,296,281,322,337,382,380,182,369
254,99,43,288,262,29,32,130,174,337,252,275,285,439,524,358,384,301,315,292,311,203,190,50,223,82,53,145,39,205,172,397,281,280,275,500,559,478,334,335,299,323,368,270,407,88,31,92,154,53,25,152,134,185,327,431,429,441,438,347,371,314,295,463,378,258,160,118,108,134,93,38,46,255,133,297,268,323,322,433,476,376,361,282,282,514,,189,,180,100,136,104,83,113,235,127,233,292,379,376,444,433,295,274,325,342,382,381,183,377
255,128,41,345,273,21,34,130,183,337,256,275,288,439,527,352,378,302,318,288,330,204,184,52,193,83,61,137,43,209,158,391,272,288,274,501,582,481,333,333,321,337,358,227,378,110,34,93,172,55,29,148,141,188,329,436,427,448,441,346,368,312,299,468,370,252,162,108,94,137,89,50,52,246,135,286,272,318,315,434,475,365,351,282,287,509,,187,,179,108,137,105,87,107,248,127,232,293,389,379,437,441,295,271,325,337,374,389,183,382
256,158,41,309,284,23,36,130,167,334,252,276,294,437,531,353,379,298,314,290,327,191,182,48,219,84,58,97,50,205,151,389,268,290,275,486,572,482,335,330,333,326,358,236,464,113,32,87,164,46,22,144,136,190,325,428,424,449,438,344,365,310,291,468,373,251,159,124,95,136,95,43,50,246,130,278,272,318,314,437,479,362,344,283,283,515,,189,,190,109,136,89,121,103,225,125,228,288,393,379,447,438,296,271,320,330,378,385,177,375
257,139,44,264,270,24,40,130,172,335,251,275,296,437,531,356,376,294,313,288,325,211,182,45,227,84,56,132,43,213,145,393,279,282,274,487,538,480,337,350,318,356,366,242,347,114,32,79,191,51,21,131,147,193,324,425,423,444,436,346,368,318,289,472,374,256,161,121,85,126,99,43,50,253,132,286,271,318,311,439,482,359,344,285,282,514,,191,,169,94,140,89,118,117,213,122,229,290,383,378,434,438,292,274,332,340,372,384,175,369
258,142,48,268,320,23,36,128,175,336,255,274,297,434,540,357,376,297,314,288,316,223,179,43,219,82,57,133,32,206,141,396,276,283,273,479,572,477,332,325,317,336,371,234,349,100,36,81,183,35,26,135,142,192,326,427,419,445,435,350,365,320,289,473,373,249,160,129,62,121,104,41,55,239,136,286,271,318,312,433,482,347,346,285,285,516,,190,,200,117,139,88,119,96,220,125,233,295,379,382,437,430,295,275,328,334,371,388,184,366
259,84,43,267,293,27,35,128,181,337,250,274,303,430,538,355,375,298,312,287,316,221,182,48,233,78,58,112,34,217,146,391,276,288,273,492,583,476,325,336,317,344,383,227,392,94,32,90,157,49,24,128,148,190,327,427,418,447,444,345,361,321,293,475,374,249,161,110,47,126,100,37,50,238,131,283,267,315,311,424,477,313,334,284,292,522,,189,,182,121,134,103,131,86,197,125,229,292,365,379,432,429,291,277,320,339,380,385,173,398
260,87,38,224,242,31,45,128,170,341,260,279,304,426,523,350,375,294,309,283,303,219,178,50,233,80,56,122,33,171,136,392,263,302,272,507,562,477,333,324,325,340,371,224,388,97,36,89,162,46,20,129,141,187,322,431,420,448,440,347,366,315,290,476,372,251,164,119,45,137,103,38,61,245,132,282,270,311,312,438,482,300,319,287,286,518,,189,,171,107,133,118,120,106,190,125,233,290,363,373,437,432,291,271,325,341,372,384,172,417
261,70,40,229,242,30,41,130,174,343,255,272,307,426,523,350,377,294,311,283,310,195,175,50,265,89,62,109,39,197,142,391,268,303,274,538,566,477,335,335,313,359,352,255,350,97,41,90,152,46,22,140,141,189,322,418,418,445,434,348,360,311,281,469,371,246,161,105,66,140,93,37,61,247,132,286,265,310,311,448,478,295,315,285,290,514,,192,,172,95,137,124,114,109,197,129,232,285,372,389,448,436,290,273,328,337,376,385,169,427
262,41,44,275,277,31,38,129,168,347,255,276,309,426,519,349,376,296,309,284,306,214,178,42,232,82,61,111,45,190,137,388,272,292,274,550,577,480,318,329,303,358,379,284,311,99,41,84,167,45,21,134,150,189,316,418,416,446,431,346,359,344,281,468,375,246,160,89,63,168,96,41,66,247,124,291,270,310,310,446,478,301,306,283,287,514,,188,,164,106,134,127,140,117,195,125,232,283,373,390,443,439,290,274,327,324,377,385,183,387
263,29,45,303,224,27,37,128,175,345,256,277,309,428,504,348,377,291,310,285,306,266,180,40,210,78,54,102,46,208,146,393,274,284,271,544,571,476,322,330,312,355,391,247,347,97,40,92,160,48,26,155,150,188,313,423,417,451,436,352,357,334,284,466,384,248,160,86,71,188,90,31,83,247,128,290,270,309,308,443,478,295,297,284,287,517,,188,,147,101,129,112,129,105,202,126,229,287,369,385,446,428,286,271,321,318,374,387,192,400
264,27,43,237,201,23,43,128,158,347,255,275,309,430,500,346,376,291,307,286,310,295,179,40,165,86,54,105,43,195,147,388,269,287,271,606,597,511,327,326,304,352,381,268,363,97,43,95,179,45,30,290,140,186,320,422,413,453,430,344,357,369,283,466,382,248,159,93,69,290,93,33,72,246,139,278,271,308,312,439,479,291,296,280,284,510,,185,,189,103,126,107,111,137,207,125,228,286,363,381,439,438,289,270,317,323,387,387,195,386
265,32,40,298,252,24,39,128,177,348,254,275,308,429,498,348,374,295,310,282,307,300,176,39,127,81,57,107,43,188,155,388,264,283,274,591,606,531,329,331,308,332,371,245,335,93,43,103,154,47,31,235,135,186,317,418,418,446,434,347,361,343,287,461,390,245,162,107,60,328,92,30,65,239,134,281,268,305,310,439,482,290,295,286,290,514,,186,,156,103,131,92,124,128,196,126,228,290,363,390,430,431,288,271,319,346,393,388,189,403
266,28,43,277,266,22,37,130,193,349,255,275,310,428,509,352,375,293,311,283,306,270,174,35,115,87,54,159,44,221,145,391,275,288,272,569,583,545,319,311,306,336,365,240,339,87,42,114,144,53,34,189,140,188,320,415,420,448,422,348,355,318,275,466,376,254,160,106,66,301,95,31,66,235,126,273,270,306,313,435,479,288,295,284,284,514,,194,,166,106,144,80,104,119,195,125,224,295,373,380,437,434,286,271,326,340,396,387,171,415
267,25,43,273,344,26,28,127,158,348,257,277,305,428,511,348,376,300,312,283,303,212,171,38,195,70,56,107,42,216,158,388,281,286,272,562,588,497,324,312,304,336,390,244,336,94,45,106,132,44,36,176,141,186,318,413,421,456,429,348,354,326,287,466,376,248,162,111,61,269,98,33,53,234,141,273,274,306,314,431,478,290,293,280,283,512,,219,,159,105,126,76,101,121,205,125,224,290,373,382,440,427,286,268,320,338,393,382,181,409
268,22,43,214,337,23,33,127,150,348,253,287,306,427,509,354,373,302,312,284,309,214,176,45,181,62,56,90,61,222,146,386,280,287,269,567,574,464,328,332,305,335,362,236,344,92,43,110,145,47,28,163,143,183,316,416,420,458,426,347,357,332,286,466,354,247,159,98,58,242,96,33,57,238,135,274,271,311,312,429,479,291,296,284,281,514,,224,,179,93,140,74,83,117,208,125,220,287,376,382,438,428,286,268,341,334,394,379,173,413
269,21,44,241,290,27,29,128,144,346,257,286,306,426,500,357,374,301,307,283,303,201,174,92,148,63,59,79,69,209,138,386,272,288,269,595,582,464,329,325,306,324,367,226,317,99,44,104,150,45,37,169,136,186,322,409,420,455,424,347,355,328,295,467,345,245,162,116,51,232,99,35,70,246,125,273,268,312,313,429,477,293,290,283,298,512,,252,,165,109,144,76,144,120,199,128,212,286,380,383,430,432,286,266,330,340,399,385,185,404
270,27,44,255,198,25,32,128,139,346,254,288,305,427,493,360,373,304,311,281,302,196,172,120,187,61,57,84,79,195,134,387,268,283,269,578,570,465,319,333,316,319,373,218,291,97,40,104,137,42,38,162,154,179,319,411,423,450,426,345,362,301,301,482,351,248,165,113,62,230,101,43,77,234,133,276,269,315,316,421,479,294,290,288,294,513,,257,,182,102,138,85,115,117,203,127,213,282,369,374,435,431,292,269,335,339,395,384,180,390
271,30,47,253,205,27,31,126,144,349,261,289,305,427,485,367,371,304,310,281,304,191,173,213,241,63,56,105,73,188,149,389,263,284,272,561,592,442,318,333,326,328,351,262,324,93,42,109,142,49,37,157,150,182,320,405,426,451,426,348,356,292,288,475,350,251,164,101,62,238,104,63,80,232,148,273,271,314,317,430,478,291,290,285,285,510,,261,,167,86,144,84,119,126,222,125,216,275,383,375,431,436,292,268,330,339,393,378,169,400
272,32,42,266,198,26,28,128,146,346,256,286,305,427,487,364,376,305,306,283,297,201,171,212,198,68,59,106,113,185,149,384,269,282,272,548,588,435,323,341,315,328,358,239,301,103,34,118,141,50,41,156,157,183,322,412,427,448,425,345,353,305,283,489,354,259,163,98,60,223,104,60,65,240,137,273,271,313,319,433,478,292,293,288,301,509,,257,,163,91,157,84,106,148,220,123,217,280,381,379,424,429,293,268,330,326,404,375,169,410
273,27,42,206,183,30,28,128,142,344,258,287,304,425,492,366,373,307,311,278,303,219,179,203,193,81,59,88,150,199,145,390,266,284,272,544,589,419,312,340,313,331,386,227,285,100,35,116,133,45,34,152,158,183,320,410,427,448,423,343,361,323,282,466,350,255,162,98,51,223,112,62,50,250,135,276,269,316,320,433,475,291,288,290,301,514,,246,,166,97,187,80,88,151,208,123,219,276,379,375,427,422,293,271,347,334,382,377,177,407
274,24,41,291,143,25,27,129,138,344,259,286,304,426,486,361,373,309,310,278,301,226,172,190,126,112,60,95,188,191,143,387,264,284,272,575,580,415,320,346,315,326,378,239,293,95,39,123,115,50,36,148,146,182,319,413,429,448,431,343,354,304,281,453,353,256,163,91,45,236,108,51,47,239,138,272,270,315,320,432,469,294,287,288,293,515,,241,,154,93,173,81,83,164,220,125,220,279,373,373,426,424,294,274,333,327,383,372,178,380
275,24,40,270,106,25,30,129,142,346,259,285,305,424,486,366,373,306,311,278,299,231,173,207,139,119,61,93,200,173,140,389,266,284,274,573,566,415,330,346,314,333,372,241,280,89,38,116,114,50,47,148,150,183,320,413,429,451,438,344,348,304,270,461,351,256,159,95,43,236,103,52,52,239,127,268,267,311,322,435,472,288,288,294,303,517,,248,,170,85,158,81,119,140,217,137,220,278,380,373,424,423,293,272,325,323,380,371,170,387
276,23,38,287,107,27,33,129,152,346,257,285,307,424,513,365,370,308,312,280,298,204,176,184,153,166,57,80,231,175,140,390,262,285,280,558,561,415,321,345,318,348,458,235,340,91,40,127,117,45,41,148,148,184,315,413,432,440,435,348,348,312,274,452,350,266,162,93,46,233,99,46,56,243,137,269,266,312,323,431,470,287,288,295,296,518,,252,,173,87,178,104,123,137,201,171,216,279,374,378,429,427,295,273,326,327,383,368,178,390
277,26,39,231,103,25,32,131,147,346,253,291,306,424,498,365,364,303,314,281,297,212,173,192,157,200,54,81,205,177,128,391,267,282,277,529,556,407,316,348,313,331,595,246,266,101,39,112,128,45,40,155,140,183,321,411,433,443,436,343,352,299,285,460,348,257,165,119,43,239,99,41,55,244,134,270,274,309,322,432,470,286,284,294,298,520,,250,,190,75,187,133,90,132,207,228,215,282,379,382,431,429,295,273,336,327,381,372,170,390
278,26,35,277,94,25,37,131,146,345,249,288,310,425,473,366,368,302,318,280,296,194,179,166,152,214,54,83,171,161,143,394,268,281,278,556,552,426,322,338,317,332,637,242,286,94,38,120,115,45,68,146,139,181,317,413,433,441,438,341,352,304,275,454,347,258,164,93,41,223,95,35,48,248,138,269,269,305,324,439,469,286,282,290,292,519,,245,,166,73,225,157,127,149,211,301,213,279,379,381,419,433,295,270,331,320,383,372,176,402
279,26,37,274,91,29,35,130,141,344,252,291,311,425,465,361,364,299,317,283,298,180,176,140,107,247,56,97,170,169,134,394,265,279,280,553,550,423,317,339,319,336,519,253,268,92,41,128,113,47,78,154,152,184,316,405,436,438,441,345,354,296,280,448,349,258,161,100,39,227,97,43,44,242,151,269,271,305,324,439,463,283,287,289,287,529,,242,,184,82,197,167,124,179,194,372,216,284,376,391,430,434,295,270,331,334,381,373,180,420
280,26,35,238,106,31,34,130,149,345,248,294,313,427,458,364,358,300,315,287,301,184,177,128,128,266,59,90,166,170,133,394,269,283,281,537,565,424,313,339,317,327,456,273,286,87,37,120,122,42,90,157,140,187,318,412,432,439,445,348,351,310,276,450,350,257,161,96,47,233,92,28,49,237,234,272,270,303,319,447,463,284,292,290,292,531,,249,,200,76,199,149,111,134,176,334,213,278,380,390,427,424,295,271,336,335,384,374,172,404
281,25,42,254,91,27,34,131,138,345,254,295,317,424,454,361,356,300,315,283,307,189,175,126,98,288,58,84,127,153,132,397,266,284,287,525,555,422,314,334,315,338,431,273,256,88,35,114,114,45,80,155,141,185,321,409,435,439,449,352,352,314,276,450,349,257,163,80,39,227,96,31,41,240,216,269,268,303,315,445,466,280,289,288,296,529,,249,,184,80,172,178,92,189,200,346,222,285,372,393,423,419,297,268,325,332,374,378,187,386
282,26,42,244,78,27,35,135,140,345,249,295,318,424,445,363,359,298,318,285,311,185,174,127,96,319,56,81,125,160,141,398,264,281,296,582,557,409,318,338,315,335,422,258,266,91,39,105,110,37,63,147,145,183,325,411,429,442,450,354,358,303,269,447,345,255,161,71,38,233,91,29,41,250,178,270,274,302,314,449,467,282,290,289,297,531,,251,,191,77,184,192,121,196,191,297,221,283,373,396,422,421,296,270,331,336,374,374,176,387
283,23,40,272,85,26,35,302,143,345,253,294,321,425,435,382,361,299,319,286,313,194,169,110,99,361,51,85,109,158,142,396,267,277,297,562,545,411,320,338,305,348,409,215,235,97,41,109,113,34,61,143,136,187,318,409,421,441,446,355,358,311,280,445,347,256,160,81,43,230,93,31,42,248,159,270,270,302,313,445,463,285,292,283,289,533,,241,,171,75,241,164,145,218,196,291,211,282,371,393,422,431,297,269,327,340,379,376,171,395
284,24,36,234,87,24,32,491,147,347,248,293,324,425,428,378,360,296,312,285,315,219,168,96,97,350,51,93,101,150,158,396,265,278,286,553,535,423,334,329,320,336,391,231,251,96,42,103,108,45,64,144,133,185,317,412,424,447,447,358,359,313,273,443,345,258,171,94,44,214,90,42,39,251,152,268,270,300,310,445,461,282,295,291,289,532,,243,,175,88,235,265,105,137,187,262,214,281,370,387,415,420,296,268,332,330,370,382,172,397
